EC-Lab ASCII FILE
Nb header lines : 48                          

Open Circuit Voltage

Run on channel : 4 (SN 13148)
User : 
Electrode connection : standard
Potential control : Ewe
Ewe ctrl range : min = -1.00 V, max = 1.00 V
Ewe,I filtering : 5 Hz
Safety Limits :
	Do not start on E overload
Channel : Floating
Acquisition started on : 07/01/2024 16:51:31.465
Loaded Setting File :  C:\Users\mAtsuhitA\Desktop\Oyafuso\20240624_???????4\1540_A.mps
Saved on :
	File : 600_A_05_OCV_C04.mpr
	Directory : C:\Users\mAtsuhitA\Desktop\Oyafuso\20240624_???????4\600_A\
	Host : 192.109.209.100
Device : VSP-300 (SN 0960)
Address : USB
EC-Lab for windows v11.50 (software)
Internet server v11.50 (firmware)
Command interpretor v11.50 (firmware)
Electrode material : 
Initial state : 
Electrolyte : 
Comments : 
Cable : standard
Electrode surface area : 0.001 cm2
Characteristic mass : 0.001 g
Equivalent Weight : 0.000 g/eq.
Density : 0.000 g/cm3
Volume (V) : 0.001 cm3
Text export
   Mode : Standard
   Time format : Elapsed
Cycle Definition : Charge/Discharge alternance
tR (h:m:s)          5:00:0.0000         
dER/dt (mV/h)       0.0                 
record              Ewe                 
dER (mV)            10.00               
dtR (s)             30.0000             
E range min (V)     -1.000              
E range max (V)     1.000               

mode	error	time/s	Ewe/V	
3	0	2.431006998366509E+005	-1.7011549E-003
3	0	2.431007656366599E+005	-1.1714947E-002
3	0	2.431008500366728E+005	-2.1745916E-002
3	0	2.431009754366926E+005	-3.1759709E-002
3	0	2.431011158367144E+005	-4.1790679E-002
3	0	2.431012766367416E+005	-5.1838826E-002
3	0	2.431014640367706E+005	-6.1855387E-002
3	0	2.431016712368020E+005	-7.1870036E-002
3	0	2.431019152368405E+005	-8.1880875E-002
3	0	2.431021896368826E+005	-9.1903158E-002
3	0	2.431025144369337E+005	-1.0191781E-001
3	0	2.431028856369928E+005	-1.1193246E-001
3	0	2.431033282370610E+005	-1.2194330E-001
3	0	2.431038706371472E+005	-1.3194650E-001
3	0	2.431045364372493E+005	-1.4194970E-001
3	0	2.431054000373860E+005	-1.5196052E-001
3	0	2.431066210375777E+005	-1.6196372E-001
3	0	2.431085508378767E+005	-1.7197074E-001
3	0	2.431136490386757E+005	-1.8197775E-001
3	0	2.431436490433696E+005	-1.9103409E-001
3	0	2.431736490480634E+005	-1.9468029E-001
3	0	2.432036490527573E+005	-1.9709328E-001
3	0	2.432336490574512E+005	-1.9929628E-001
3	0	2.432636490621450E+005	-2.0096092E-001
3	0	2.432936490668389E+005	-2.0227049E-001
3	0	2.433236490715328E+005	-2.0395043E-001
3	0	2.433536490762266E+005	-2.0492785E-001
3	0	2.433836490809205E+005	-2.0609616E-001
3	0	2.434136490856144E+005	-2.0713848E-001
3	0	2.434436490903082E+005	-2.0795171E-001
3	0	2.434736490950021E+005	-2.0866185E-001
3	0	2.435036490996960E+005	-2.0943692E-001
3	0	2.435336491043898E+005	-2.1016234E-001
3	0	2.435636491090837E+005	-2.1073504E-001
3	0	2.435936491137776E+005	-2.1140702E-001
3	0	2.436236491184714E+005	-2.1205226E-001
3	0	2.436536491231653E+005	-2.1265550E-001
3	0	2.436836491278592E+005	-2.1319003E-001
3	0	2.437136491325530E+005	-2.1383527E-001
3	0	2.437436491372469E+005	-2.1425143E-001
3	0	2.437736491419408E+005	-2.1469815E-001
3	0	2.438036491466346E+005	-2.1520975E-001
3	0	2.438336491513285E+005	-2.1561830E-001
3	0	2.438636491560224E+005	-2.1622917E-001
3	0	2.438936491607162E+005	-2.1655752E-001
3	0	2.439236491654101E+005	-2.1706532E-001
3	0	2.439536491701039E+005	-2.1735166E-001
3	0	2.439836491747978E+005	-2.1777928E-001
3	0	2.440136491794917E+005	-2.1796253E-001
3	0	2.440436491841855E+005	-2.1837108E-001
3	0	2.440736491888794E+005	-2.1871088E-001
3	0	2.441036491935733E+005	-2.1902777E-001
3	0	2.441336491982671E+005	-2.1939048E-001
3	0	2.441636492029610E+005	-2.1973793E-001
3	0	2.441936492076549E+005	-2.2015026E-001
3	0	2.442236492123487E+005	-2.2032209E-001
3	0	2.442536492170426E+005	-2.2061224E-001
3	0	2.442836492217365E+005	-2.2088332E-001
3	0	2.443136492264303E+005	-2.2113913E-001
3	0	2.443436492311242E+005	-2.2135295E-001
3	0	2.443736492358181E+005	-2.2163166E-001
3	0	2.444036492405115E+005	-2.2184166E-001
3	0	2.444336492452053E+005	-2.2188365E-001
3	0	2.444636492498992E+005	-2.2233416E-001
3	0	2.444936492545931E+005	-2.2262053E-001
3	0	2.445236492592869E+005	-2.2267780E-001
3	0	2.445536492639808E+005	-2.2310542E-001
3	0	2.445836492686747E+005	-2.2342612E-001
3	0	2.446136492733685E+005	-2.2351776E-001
3	0	2.446436492780624E+005	-2.2387284E-001
3	0	2.446736492827563E+005	-2.2402173E-001
3	0	2.447036492874501E+005	-2.2411337E-001
3	0	2.447336492921440E+005	-2.2440736E-001
3	0	2.447636492968379E+005	-2.2478916E-001
3	0	2.447936493015317E+005	-2.2501442E-001
3	0	2.448236493062256E+005	-2.2514041E-001
3	0	2.448536493109195E+005	-2.2524732E-001
3	0	2.448836493156133E+005	-2.2564439E-001
3	0	2.449136493203072E+005	-2.2599185E-001
3	0	2.449436493250011E+005	-2.2590400E-001
3	0	2.449736493296949E+005	-2.2617510E-001
3	0	2.450036493343888E+005	-2.2669435E-001
3	0	2.450336493390827E+005	-2.2690052E-001
3	0	2.450636493437765E+005	-2.2709142E-001
3	0	2.450936493484704E+005	-2.2722887E-001
3	0	2.451236493531642E+005	-2.2728233E-001
3	0	2.451536493578581E+005	-2.2754958E-001
3	0	2.451836493625520E+005	-2.2784357E-001
3	0	2.452136493672458E+005	-2.2801156E-001
3	0	2.452436493719397E+005	-2.2803828E-001
3	0	2.452736493766336E+005	-2.2822538E-001
3	0	2.453036493813274E+005	-2.2822155E-001
3	0	2.453336493860213E+005	-2.2842772E-001
3	0	2.453636493907152E+005	-2.2850026E-001
3	0	2.453936493954090E+005	-2.2863773E-001
3	0	2.454236494001029E+005	-2.2883244E-001
3	0	2.454536494047968E+005	-2.2906151E-001
3	0	2.454836494094906E+005	-2.2925624E-001
3	0	2.455136494141845E+005	-2.2929060E-001
3	0	2.455436494188784E+005	-2.2942805E-001
3	0	2.455736494235722E+005	-2.2953877E-001
3	0	2.456036494282661E+005	-2.2967240E-001
3	0	2.456336494329600E+005	-2.2995493E-001
3	0	2.456636494376534E+005	-2.2985184E-001
3	0	2.456936494423472E+005	-2.3023364E-001
3	0	2.457236494470411E+005	-2.3018020E-001
3	0	2.457536494517350E+005	-2.3028328E-001
3	0	2.457836494564288E+005	-2.3050855E-001
3	0	2.458136494611227E+005	-2.3069564E-001
3	0	2.458436494658166E+005	-2.3091707E-001
3	0	2.458736494705104E+005	-2.3092471E-001
3	0	2.459036494752043E+005	-2.3097052E-001
3	0	2.459336494798982E+005	-2.3111561E-001
3	0	2.459636494845920E+005	-2.3129123E-001
3	0	2.459936494892859E+005	-2.3148978E-001
3	0	2.460236494939798E+005	-2.3149359E-001
3	0	2.460536494986736E+005	-2.3167303E-001
3	0	2.460836495033675E+005	-2.3177613E-001
3	0	2.461136495080614E+005	-2.3183340E-001
3	0	2.461436495127552E+005	-2.3191740E-001
3	0	2.461736495174491E+005	-2.3203574E-001
3	0	2.462036495221430E+005	-2.3217320E-001
3	0	2.462336495268368E+005	-2.3230684E-001
3	0	2.462636495315307E+005	-2.3224956E-001
3	0	2.462936495362245E+005	-2.3226102E-001
3	0	2.463236495409184E+005	-2.3244046E-001
3	0	2.463536495456123E+005	-2.3234883E-001
3	0	2.463836495503061E+005	-2.3251300E-001
3	0	2.464136495550000E+005	-2.3258173E-001
3	0	2.464436495596939E+005	-2.3268864E-001
3	0	2.464736495643877E+005	-2.3275353E-001
3	0	2.465036495690816E+005	-2.3295589E-001
3	0	2.465336495737755E+005	-2.3305899E-001
3	0	2.465636495784693E+005	-2.3325752E-001
3	0	2.465936495831632E+005	-2.3337588E-001
3	0	2.466236495878571E+005	-2.3329569E-001
3	0	2.466536495925509E+005	-2.3347515E-001
3	0	2.466836495972448E+005	-2.3358205E-001
3	0	2.467136496019387E+005	-2.3368131E-001
3	0	2.467436496066325E+005	-2.3390658E-001
3	0	2.467736496113264E+005	-2.3395620E-001
3	0	2.468036496160203E+005	-2.3412420E-001
3	0	2.468336496207141E+005	-2.3397912E-001
3	0	2.468636496254080E+005	-2.3417002E-001
3	0	2.468936496301019E+005	-2.3425019E-001
3	0	2.469236496347957E+005	-2.3426928E-001
3	0	2.469536496394891E+005	-2.3436855E-001
3	0	2.469836496441830E+005	-2.3452510E-001
3	0	2.470136496488769E+005	-2.3470455E-001
3	0	2.470436496535707E+005	-2.3475036E-001
3	0	2.470736496582646E+005	-2.3489162E-001
3	0	2.471036496629585E+005	-2.3504816E-001
3	0	2.471336496676523E+005	-2.3506343E-001
3	0	2.471636496723462E+005	-2.3504435E-001
3	0	2.471936496770401E+005	-2.3521616E-001
3	0	2.472236496817339E+005	-2.3520851E-001
3	0	2.472536496864278E+005	-2.3525052E-001
3	0	2.472836496911217E+005	-2.3552160E-001
3	0	2.473136496958155E+005	-2.3559795E-001
3	0	2.473436497005094E+005	-2.3560560E-001
3	0	2.473736497052033E+005	-2.3567814E-001
3	0	2.474036497098971E+005	-2.3586139E-001
3	0	2.474336497145910E+005	-2.3575068E-001
3	0	2.474636497192848E+005	-2.3583467E-001
3	0	2.474936497239787E+005	-2.3599121E-001
3	0	2.475236497286726E+005	-2.3610575E-001
3	0	2.475536497333664E+005	-2.3610957E-001
3	0	2.475836497380603E+005	-2.3619357E-001
3	0	2.476136497427542E+005	-2.3615921E-001
3	0	2.476436497474480E+005	-2.3628519E-001
3	0	2.476736497521419E+005	-2.3647992E-001
3	0	2.477036497568358E+005	-2.3662119E-001
3	0	2.477336497615296E+005	-2.3658301E-001
3	0	2.477636497662235E+005	-2.3662500E-001
3	0	2.477936497709174E+005	-2.3673573E-001
3	0	2.478236497756112E+005	-2.3690754E-001
3	0	2.478536497803051E+005	-2.3678154E-001
3	0	2.478836497849990E+005	-2.3685026E-001
3	0	2.479136497896928E+005	-2.3685791E-001
3	0	2.479436497943867E+005	-2.3689991E-001
3	0	2.479736497990806E+005	-2.3709461E-001
3	0	2.480036498037744E+005	-2.3712897E-001
3	0	2.480336498084683E+005	-2.3723970E-001
3	0	2.480636498131622E+005	-2.3723587E-001
3	0	2.480936498178560E+005	-2.3731226E-001
3	0	2.481236498225499E+005	-2.3746115E-001
3	0	2.481536498272438E+005	-2.3771314E-001
3	0	2.481836498319376E+005	-2.3770168E-001
3	0	2.482136498366315E+005	-2.3762150E-001
3	0	2.482436498413249E+005	-2.3771314E-001
3	0	2.482736498460188E+005	-2.3780096E-001
3	0	2.483036498507126E+005	-2.3784678E-001
3	0	2.483336498554065E+005	-2.3782004E-001
3	0	2.483636498601004E+005	-2.3790404E-001
3	0	2.483936498647942E+005	-2.3785822E-001
3	0	2.484236498694881E+005	-2.3801857E-001
3	0	2.484536498741820E+005	-2.3799567E-001
3	0	2.484836498788758E+005	-2.3806439E-001
3	0	2.485136498835697E+005	-2.3819038E-001
3	0	2.485436498882636E+005	-2.3821330E-001
3	0	2.485736498929574E+005	-2.3810638E-001
3	0	2.486036498976513E+005	-2.3835838E-001
3	0	2.486336499023451E+005	-2.3845765E-001
3	0	2.486636499070390E+005	-2.3857601E-001
3	0	2.486936499117329E+005	-2.3868673E-001
3	0	2.487236499164267E+005	-2.3862948E-001
3	0	2.487536499211206E+005	-2.3857982E-001
3	0	2.487836499258145E+005	-2.3860274E-001
3	0	2.488136499305083E+005	-2.3888908E-001
3	0	2.488436499352022E+005	-2.3872490E-001
3	0	2.488736499398961E+005	-2.3883182E-001
3	0	2.489036499445899E+005	-2.3895399E-001
3	0	2.489336499492838E+005	-2.3900363E-001
3	0	2.489636499539777E+005	-2.3890819E-001
3	0	2.489936499586715E+005	-2.3901127E-001
3	0	2.490236499633654E+005	-2.3901507E-001
3	0	2.490536499680593E+005	-2.3911434E-001
3	0	2.490836499727531E+005	-2.3923272E-001
3	0	2.491136499774470E+005	-2.3933960E-001
3	0	2.491436499821409E+005	-2.3930143E-001
3	0	2.491736499868347E+005	-2.3940070E-001
3	0	2.492036499915286E+005	-2.3943506E-001
3	0	2.492336499962225E+005	-2.3942360E-001
3	0	2.492636500009163E+005	-2.3955724E-001
3	0	2.492936500056102E+005	-2.3944652E-001
3	0	2.493236500103041E+005	-2.3959543E-001
3	0	2.493536500149979E+005	-2.3964505E-001
3	0	2.493836500196918E+005	-2.3958778E-001
3	0	2.494136500243857E+005	-2.3955342E-001
3	0	2.494436500290795E+005	-2.3962596E-001
3	0	2.494736500337734E+005	-2.3968706E-001
3	0	2.495036500384668E+005	-2.3970233E-001
3	0	2.495336500431607E+005	-2.3973288E-001
3	0	2.495636500478545E+005	-2.3987414E-001
3	0	2.495936500525484E+005	-2.3992376E-001
3	0	2.496236500572423E+005	-2.3999631E-001
3	0	2.496536500619361E+005	-2.4002685E-001
3	0	2.496836500666300E+005	-2.4009940E-001
3	0	2.497136500713238E+005	-2.4007648E-001
3	0	2.497436500760177E+005	-2.4012613E-001
3	0	2.497736500807116E+005	-2.4027503E-001
3	0	2.498036500854054E+005	-2.4022157E-001
3	0	2.498336500900993E+005	-2.4023303E-001
3	0	2.498636500947932E+005	-2.4031703E-001
3	0	2.498936500994870E+005	-2.4049647E-001
3	0	2.499236501041809E+005	-2.4050030E-001
3	0	2.499536501088748E+005	-2.4050030E-001
3	0	2.499836501135686E+005	-2.4049647E-001
3	0	2.500136501182625E+005	-2.4051939E-001
3	0	2.500436501229564E+005	-2.4099281E-001
3	0	2.500736501276502E+005	-2.4097754E-001
3	0	2.501036501323441E+005	-2.4082482E-001
3	0	2.501336501370380E+005	-2.4090500E-001
3	0	2.501636501417318E+005	-2.4111117E-001
3	0	2.501936501464257E+005	-2.4114554E-001
3	0	2.502236501511196E+005	-2.4117225E-001
3	0	2.502536501558134E+005	-2.4106917E-001
3	0	2.502836501605073E+005	-2.4101190E-001
3	0	2.503136501652012E+005	-2.4111116E-001
3	0	2.503436501698950E+005	-2.4122189E-001
3	0	2.503736501745889E+005	-2.4125242E-001
3	0	2.504036501792828E+005	-2.4125625E-001
3	0	2.504336501839766E+005	-2.4118371E-001
3	0	2.504636501886705E+005	-2.4138226E-001
3	0	2.504936501933644E+005	-2.4141662E-001
3	0	2.505236501980582E+005	-2.4152352E-001
3	0	2.505536502027521E+005	-2.4166097E-001
3	0	2.505836502074460E+005	-2.4174495E-001
3	0	2.506136502121398E+005	-2.4166478E-001
3	0	2.506436502168337E+005	-2.4174877E-001
3	0	2.506736502215276E+005	-2.4173732E-001
3	0	2.507036502262214E+005	-2.4488337E-001
3	0	2.507336502309153E+005	-2.4318436E-001
3	0	2.507636502356092E+005	-2.4319580E-001
3	0	2.507936502403026E+005	-2.4311563E-001
3	0	2.508236502449964E+005	-2.4356997E-001
3	0	2.508536502496903E+005	-2.4331418E-001
3	0	2.508836502543841E+005	-2.4324162E-001
3	0	2.509136502590780E+005	-2.4327980E-001
3	0	2.509436502637719E+005	-2.4329889E-001
3	0	2.509736502684657E+005	-2.4324162E-001
3	0	2.510036502731596E+005	-2.4315381E-001
3	0	2.510336502778535E+005	-2.4325308E-001
3	0	2.510636502825473E+005	-2.4318436E-001
3	0	2.510936502872412E+005	-2.4310800E-001
3	0	2.511236502919351E+005	-2.4321872E-001
3	0	2.511536502966289E+005	-2.4303927E-001
3	0	2.511836503013228E+005	-2.4311945E-001
3	0	2.512136503060167E+005	-2.4312325E-001
3	0	2.512436503107105E+005	-2.4327217E-001
3	0	2.512736503154044E+005	-2.4321109E-001
3	0	2.513036503200983E+005	-2.4308890E-001
3	0	2.513336503247921E+005	-2.4319962E-001
3	0	2.513636503294860E+005	-2.4316145E-001
3	0	2.513936503341799E+005	-2.4320726E-001
3	0	2.514236503388737E+005	-2.4332181E-001
3	0	2.514536503435676E+005	-2.4329889E-001
3	0	2.514836503482615E+005	-2.4339053E-001
3	0	2.515136503529553E+005	-2.4348979E-001
3	0	2.515436503576492E+005	-2.4324544E-001
3	0	2.515736503623431E+005	-2.4329507E-001
3	0	2.516036503670369E+005	-2.4342871E-001
3	0	2.516336503717308E+005	-2.4337144E-001
3	0	2.516636503764247E+005	-2.4335998E-001
3	0	2.516936503811185E+005	-2.4309272E-001
3	0	2.517236503858124E+005	-2.4313854E-001
3	0	2.517536503905063E+005	-2.4309272E-001
3	0	2.517836503952001E+005	-2.4318434E-001
3	0	2.518136503998940E+005	-2.4321872E-001
3	0	2.518436504045879E+005	-2.4309655E-001
3	0	2.518736504092817E+005	-2.4306217E-001
3	0	2.519036504139756E+005	-2.4300109E-001
3	0	2.519336504186695E+005	-2.4321872E-001
3	0	2.519636504233633E+005	-2.4298581E-001
3	0	2.519936504280572E+005	-2.4336761E-001
3	0	2.520236504327510E+005	-2.4304309E-001
3	0	2.520536504374449E+005	-2.4304689E-001
3	0	2.520836504421383E+005	-2.4298581E-001
3	0	2.521136504468322E+005	-2.4298200E-001
3	0	2.521436504515260E+005	-2.4303928E-001
3	0	2.521736504562199E+005	-2.4305072E-001
3	0	2.522036504609138E+005	-2.4300490E-001
3	0	2.522336504656076E+005	-2.4318434E-001
3	0	2.522636504703015E+005	-2.4309653E-001
3	0	2.522936504749954E+005	-2.4311563E-001
3	0	2.523236504796892E+005	-2.4297054E-001
3	0	2.523536504843831E+005	-2.4291328E-001
3	0	2.523836504890770E+005	-2.4317671E-001
3	0	2.524136504937708E+005	-2.4347834E-001
3	0	2.524436504984647E+005	-2.4347070E-001
3	0	2.524736505031586E+005	-2.4339052E-001
3	0	2.525036505078524E+005	-2.4347834E-001
3	0	2.525336505125463E+005	-2.4345161E-001
3	0	2.525636505172402E+005	-2.4350888E-001
3	0	2.525936505219340E+005	-2.4353944E-001
3	0	2.526236505266279E+005	-2.4332944E-001
3	0	2.526536505313218E+005	-2.4351270E-001
3	0	2.526836505360156E+005	-2.4348597E-001
3	0	2.527136505407095E+005	-2.4354707E-001
3	0	2.527436505454034E+005	-2.4373415E-001
3	0	2.527736505500972E+005	-2.4372652E-001
3	0	2.528036505547911E+005	-2.4374561E-001
3	0	2.528336505594850E+005	-2.4358524E-001
3	0	2.528636505641788E+005	-2.4352416E-001
3	0	2.528936505688727E+005	-2.4352033E-001
3	0	2.529236505735666E+005	-2.4381050E-001
3	0	2.529536505782604E+005	-2.4370742E-001
3	0	2.529836505829543E+005	-2.4352416E-001
3	0	2.530136505876482E+005	-2.4360433E-001
3	0	2.530436505923420E+005	-2.4379525E-001
3	0	2.530736505970359E+005	-2.4378379E-001
3	0	2.531036506017298E+005	-2.4377233E-001
3	0	2.531336506064236E+005	-2.4372652E-001
3	0	2.531636506111175E+005	-2.4374941E-001
3	0	2.531936506158113E+005	-2.4382959E-001
3	0	2.532236506205052E+005	-2.4381433E-001
3	0	2.532536506251991E+005	-2.4392505E-001
3	0	2.532836506298929E+005	-2.4383724E-001
3	0	2.533136506345868E+005	-2.4396323E-001
3	0	2.533436506392802E+005	-2.4389069E-001
3	0	2.533736506439741E+005	-2.4403577E-001
3	0	2.534036506486679E+005	-2.4403195E-001
3	0	2.534336506533618E+005	-2.4403197E-001
3	0	2.534636506580557E+005	-2.4416941E-001
3	0	2.534936506627495E+005	-2.4403195E-001
3	0	2.535236506674434E+005	-2.4400522E-001
3	0	2.535536506721373E+005	-2.4395178E-001
3	0	2.535836506768311E+005	-2.4405104E-001
3	0	2.536136506815250E+005	-2.4408923E-001
3	0	2.536436506862189E+005	-2.4403197E-001
3	0	2.536736506909127E+005	-2.4407777E-001
3	0	2.537036506956066E+005	-2.4408922E-001
3	0	2.537336507003005E+005	-2.4412359E-001
3	0	2.537636507049943E+005	-2.4424577E-001
3	0	2.537936507096882E+005	-2.4413887E-001
3	0	2.538236507143821E+005	-2.4428394E-001
3	0	2.538536507190759E+005	-2.4408540E-001
3	0	2.538836507237698E+005	-2.4414648E-001
3	0	2.539136507284637E+005	-2.4405485E-001
3	0	2.539436507331575E+005	-2.4398232E-001
3	0	2.539736507378514E+005	-2.4408540E-001
3	0	2.540036507425453E+005	-2.4405868E-001
3	0	2.540336507472391E+005	-2.4429157E-001
3	0	2.540636507519330E+005	-2.4440612E-001
3	0	2.540936507566269E+005	-2.4445957E-001
3	0	2.541236507613207E+005	-2.4440230E-001
3	0	2.541536507660146E+005	-2.4456647E-001
3	0	2.541836507707085E+005	-2.4457411E-001
3	0	2.542136507754023E+005	-2.4458174E-001
3	0	2.542436507800962E+005	-2.4454357E-001
3	0	2.542736507847901E+005	-2.4465811E-001
3	0	2.543036507894839E+005	-2.4484518E-001
3	0	2.543336507941778E+005	-2.4481846E-001
3	0	2.543636507988716E+005	-2.4482991E-001
3	0	2.543936508035655E+005	-2.4492918E-001
3	0	2.544236508082594E+005	-2.4483374E-001
3	0	2.544536508129532E+005	-2.4480318E-001
3	0	2.544836508176471E+005	-2.4481465E-001
3	0	2.545136508223410E+005	-2.4464284E-001
3	0	2.545436508270348E+005	-2.4482228E-001
3	0	2.545736508317287E+005	-2.4472684E-001
3	0	2.546036508364226E+005	-2.4487954E-001
3	0	2.546336508411160E+005	-2.4474210E-001
3	0	2.546636508458098E+005	-2.4487191E-001
3	0	2.546936508505037E+005	-2.4471155E-001
3	0	2.547236508551976E+005	-2.4473447E-001
3	0	2.547536508598914E+005	-2.4494065E-001
3	0	2.547836508645853E+005	-2.4479938E-001
3	0	2.548136508692792E+005	-2.4475737E-001
3	0	2.548436508739730E+005	-2.4467339E-001
3	0	2.548736508786669E+005	-2.4479938E-001
3	0	2.549036508833608E+005	-2.4473447E-001
3	0	2.549336508880546E+005	-2.4480702E-001
3	0	2.549636508927485E+005	-2.4482992E-001
3	0	2.549936508974424E+005	-2.4481083E-001
3	0	2.550236509021362E+005	-2.4481846E-001
3	0	2.550536509068301E+005	-2.4494445E-001
3	0	2.550836509115240E+005	-2.4496736E-001
3	0	2.551136509162178E+005	-2.4492155E-001
3	0	2.551436509209117E+005	-2.4505900E-001
3	0	2.551736509256056E+005	-2.4503991E-001
3	0	2.552036509302994E+005	-2.4492155E-001
3	0	2.552336509349933E+005	-2.4510863E-001
3	0	2.552636509396872E+005	-2.4502082E-001
3	0	2.552936509443810E+005	-2.4507046E-001
3	0	2.553236509490749E+005	-2.4502845E-001
3	0	2.553536509537688E+005	-2.4524227E-001
3	0	2.553836509584626E+005	-2.4515063E-001
3	0	2.554136509631565E+005	-2.4512772E-001
3	0	2.554436509678504E+005	-2.4521554E-001
3	0	2.554736509725442E+005	-2.4535298E-001
3	0	2.555036509772381E+005	-2.4523844E-001
3	0	2.555336509819319E+005	-2.4526136E-001
3	0	2.555636509866258E+005	-2.4529189E-001
3	0	2.555936509913197E+005	-2.4532627E-001
3	0	2.556236509960135E+005	-2.4537590E-001
3	0	2.556536510007074E+005	-2.4565843E-001
3	0	2.556836510054013E+005	-2.4554770E-001
3	0	2.557136510100951E+005	-2.4570806E-001
3	0	2.557436510147890E+005	-2.4558970E-001
3	0	2.557736510194829E+005	-2.4570806E-001
3	0	2.558036510241767E+005	-2.4573861E-001
3	0	2.558336510288706E+005	-2.4570043E-001
3	0	2.558636510335645E+005	-2.4577297E-001
3	0	2.558936510382579E+005	-2.4587606E-001
3	0	2.559236510429517E+005	-2.4599059E-001
3	0	2.559536510476456E+005	-2.4597913E-001
3	0	2.559836510523395E+005	-2.4603641E-001
3	0	2.560136510570333E+005	-2.4607077E-001
3	0	2.560436510617272E+005	-2.4620059E-001
3	0	2.560736510664211E+005	-2.4612422E-001
3	0	2.561036510711149E+005	-2.4619678E-001
3	0	2.561336510758088E+005	-2.4607077E-001
3	0	2.561636510805027E+005	-2.4620822E-001
3	0	2.561936510851965E+005	-2.4634948E-001
3	0	2.562236510898904E+005	-2.4620822E-001
3	0	2.562536510945843E+005	-2.4630366E-001
3	0	2.562836510992781E+005	-2.4635713E-001
3	0	2.563136511039720E+005	-2.4615477E-001
3	0	2.563436511086659E+005	-2.4620822E-001
3	0	2.563736511133597E+005	-2.4634567E-001
3	0	2.564036511180536E+005	-2.4632658E-001
3	0	2.564336511227475E+005	-2.4642204E-001
3	0	2.564636511274413E+005	-2.4628840E-001
3	0	2.564936511321352E+005	-2.4628459E-001
3	0	2.565236511368291E+005	-2.4630368E-001
3	0	2.565536511415229E+005	-2.4618913E-001
3	0	2.565836511462168E+005	-2.4623877E-001
3	0	2.566136511509106E+005	-2.4625404E-001
3	0	2.566436511556045E+005	-2.4634567E-001
3	0	2.566736511602984E+005	-2.4621585E-001
3	0	2.567036511649922E+005	-2.4645640E-001
3	0	2.567336511696861E+005	-2.4624640E-001
3	0	2.567636511743800E+005	-2.4644494E-001
3	0	2.567936511790738E+005	-2.4643730E-001
3	0	2.568236511837677E+005	-2.4639530E-001
3	0	2.568536511884616E+005	-2.4638385E-001
3	0	2.568836511931554E+005	-2.4655184E-001
3	0	2.569136511978493E+005	-2.4652512E-001
3	0	2.569436512025432E+005	-2.4651365E-001
3	0	2.569736512072370E+005	-2.4660912E-001
3	0	2.570036512119309E+005	-2.4653657E-001
3	0	2.570336512166248E+005	-2.4652512E-001
3	0	2.570636512213186E+005	-2.4666639E-001
3	0	2.570936512260125E+005	-2.4650985E-001
3	0	2.571236512307064E+005	-2.4661675E-001
3	0	2.571536512354002E+005	-2.4680765E-001
3	0	2.571836512400936E+005	-2.4663965E-001
3	0	2.572136512447875E+005	-2.4685346E-001
3	0	2.572436512494814E+005	-2.4699473E-001
3	0	2.572736512541752E+005	-2.4675420E-001
3	0	2.573036512588691E+005	-2.4668548E-001
3	0	2.573336512635630E+005	-2.4668548E-001
3	0	2.573636512682568E+005	-2.4717417E-001
3	0	2.573936512729507E+005	-2.4708255E-001
3	0	2.574236512776446E+005	-2.4701001E-001
3	0	2.574536512823384E+005	-2.4691837E-001
3	0	2.574836512870323E+005	-2.4705583E-001
3	0	2.575136512917262E+005	-2.4723145E-001
3	0	2.575436512964200E+005	-2.4721999E-001
3	0	2.575736513011139E+005	-2.4723144E-001
3	0	2.576036513058078E+005	-2.4709401E-001
3	0	2.576336513105016E+005	-2.4718180E-001
3	0	2.576636513151955E+005	-2.4720472E-001
3	0	2.576936513198894E+005	-2.4710546E-001
3	0	2.577236513245832E+005	-2.4718945E-001
3	0	2.577536513292771E+005	-2.4709782E-001
3	0	2.577836513339709E+005	-2.4717417E-001
3	0	2.578136513386648E+005	-2.4710163E-001
3	0	2.578436513433587E+005	-2.4716654E-001
3	0	2.578736513480525E+005	-2.4709401E-001
3	0	2.579036513527464E+005	-2.4716273E-001
3	0	2.579336513574403E+005	-2.4717417E-001
3	0	2.579636513621341E+005	-2.4722764E-001
3	0	2.579936513668280E+005	-2.4720472E-001
3	0	2.580236513715219E+005	-2.4726200E-001
3	0	2.580536513762157E+005	-2.4730399E-001
3	0	2.580836513809096E+005	-2.4727345E-001
3	0	2.581136513856035E+005	-2.4741089E-001
3	0	2.581436513902973E+005	-2.4753308E-001
3	0	2.581736513949912E+005	-2.4760944E-001
3	0	2.582036513996851E+005	-2.4768198E-001
3	0	2.582336514043789E+005	-2.4791107E-001
3	0	2.582636514090728E+005	-2.4793778E-001
3	0	2.582936514137667E+005	-2.4786904E-001
3	0	2.583236514184605E+005	-2.4802941E-001
3	0	2.583536514231544E+005	-2.4811724E-001
3	0	2.583836514278483E+005	-2.4804468E-001
3	0	2.584136514325421E+005	-2.4810195E-001
3	0	2.584436514372360E+005	-2.4822032E-001
3	0	2.584736514419294E+005	-2.4835013E-001
3	0	2.585036514466233E+005	-2.4837685E-001
3	0	2.585336514513171E+005	-2.4844176E-001
3	0	2.585636514560110E+005	-2.4851048E-001
3	0	2.585936514607049E+005	-2.4849521E-001
3	0	2.586236514653987E+005	-2.4856013E-001
3	0	2.586536514700926E+005	-2.4839212E-001
3	0	2.586836514747865E+005	-2.4837303E-001
3	0	2.587136514794803E+005	-2.4839212E-001
3	0	2.587436514841742E+005	-2.4852575E-001
3	0	2.587736514888681E+005	-2.4852575E-001
3	0	2.588036514935619E+005	-2.4857157E-001
3	0	2.588336514982558E+005	-2.4845703E-001
3	0	2.588636515029497E+005	-2.4850665E-001
3	0	2.588936515076435E+005	-2.4847995E-001
3	0	2.589236515123374E+005	-2.4868611E-001
3	0	2.589536515170312E+005	-2.4861738E-001
3	0	2.589836515217251E+005	-2.4849521E-001
3	0	2.590136515264190E+005	-2.4854484E-001
3	0	2.590436515311128E+005	-2.4870902E-001
3	0	2.590736515358067E+005	-2.4852957E-001
3	0	2.591036515405006E+005	-2.4857539E-001
3	0	2.591336515451944E+005	-2.4858303E-001
3	0	2.591636515498883E+005	-2.4856012E-001
3	0	2.591936515545822E+005	-2.4860212E-001
3	0	2.592236515592760E+005	-2.4878156E-001
3	0	2.592536515639699E+005	-2.4868231E-001
3	0	2.592836515686638E+005	-2.4857920E-001
3	0	2.593136515733576E+005	-2.4849521E-001
3	0	2.593436515780515E+005	-2.4859831E-001
3	0	2.593736515827454E+005	-2.4872047E-001
3	0	2.594036515874392E+005	-2.4875866E-001
3	0	2.594336515921331E+005	-2.4889991E-001
3	0	2.594636515968270E+005	-2.4886556E-001
3	0	2.594936516015208E+005	-2.4887702E-001
3	0	2.595236516062147E+005	-2.4903356E-001
3	0	2.595536516109086E+005	-2.4906029E-001
3	0	2.595836516156024E+005	-2.4910609E-001
3	0	2.596136516202963E+005	-2.4905647E-001
3	0	2.596436516249902E+005	-2.4922827E-001
3	0	2.596736516296840E+005	-2.4927409E-001
3	0	2.597036516343779E+005	-2.4932754E-001
3	0	2.597336516390713E+005	-2.4930845E-001
3	0	2.597636516437652E+005	-2.4925883E-001
3	0	2.597936516484590E+005	-2.4937336E-001
3	0	2.598236516531529E+005	-2.4941918E-001
3	0	2.598536516578468E+005	-2.4931227E-001
3	0	2.598836516625406E+005	-2.4938862E-001
3	0	2.599136516672345E+005	-2.4951462E-001
3	0	2.599436516719284E+005	-2.4933518E-001
3	0	2.599736516766222E+005	-2.4933900E-001
3	0	2.600036516813161E+005	-2.4953754E-001
3	0	2.600336516860100E+005	-2.4973989E-001
3	0	2.600636516907038E+005	-2.4967116E-001
3	0	2.600936516953977E+005	-2.4976280E-001
3	0	2.601236517000915E+005	-2.4981242E-001
3	0	2.601536517047854E+005	-2.4999569E-001
3	0	2.601836517094793E+005	-2.4993460E-001
3	0	2.602136517141731E+005	-2.4981244E-001
3	0	2.602436517188670E+005	-2.4983151E-001
3	0	2.602736517235609E+005	-2.4983916E-001
3	0	2.603036517282547E+005	-2.4987352E-001
3	0	2.603336517329486E+005	-2.4988498E-001
3	0	2.603636517376425E+005	-2.4996898E-001
3	0	2.603936517423363E+005	-2.4978571E-001
3	0	2.604236517470302E+005	-2.4978189E-001
3	0	2.604536517517241E+005	-2.4980861E-001
3	0	2.604836517564179E+005	-2.4971317E-001
3	0	2.605136517611118E+005	-2.4961390E-001
3	0	2.605436517658057E+005	-2.4958716E-001
3	0	2.605736517704995E+005	-2.4962154E-001
3	0	2.606036517751934E+005	-2.4959862E-001
3	0	2.606336517798873E+005	-2.4967881E-001
3	0	2.606636517845811E+005	-2.4967116E-001
3	0	2.606936517892750E+005	-2.4973226E-001
3	0	2.607236517939689E+005	-2.4959862E-001
3	0	2.607536517986627E+005	-2.4957570E-001
3	0	2.607836518033566E+005	-2.4964444E-001
3	0	2.608136518080505E+005	-2.4960627E-001
3	0	2.608436518127443E+005	-2.4952990E-001
3	0	2.608736518174382E+005	-2.4965972E-001
3	0	2.609036518221321E+005	-2.4998423E-001
3	0	2.609336518268259E+005	-2.4981624E-001
3	0	2.609636518315198E+005	-2.4983151E-001
3	0	2.609936518362137E+005	-2.4977425E-001
3	0	2.610236518409071E+005	-2.4965970E-001
3	0	2.610536518456009E+005	-2.4972463E-001
3	0	2.610836518502948E+005	-2.4975899E-001
3	0	2.611007028529615E+005	-2.4961390E-001