EC-Lab ASCII FILE
Nb header lines : 48                          

Open Circuit Voltage

Run on channel : 3 (SN 13150)
User : 
Electrode connection : standard
Potential control : Ewe
Ewe ctrl range : min = -1.00 V, max = 1.00 V
Ewe,I filtering : 5 Hz
Safety Limits :
	Do not start on E overload
Channel : Floating
Acquisition started on : 07/01/2024 16:51:05.709
Loaded Setting File :  C:\Users\mAtsuhitA\Desktop\Oyafuso\20240624_???????4\1540_A.mps
Saved on :
	File : 600_B_09_OCV_C03.mpr
	Directory : C:\Users\mAtsuhitA\Desktop\Oyafuso\20240624_???????4\600_B\
	Host : 192.109.209.100
Device : VSP-300 (SN 0834)
Address : 192.109.209.128
EC-Lab for windows v11.50 (software)
Internet server v11.50 (firmware)
Command interpretor v11.50 (firmware)
Electrode material : 
Initial state : 
Electrolyte : 
Comments : 
Cable : standard
Electrode surface area : 0.001 cm2
Characteristic mass : 0.001 g
Equivalent Weight : 0.000 g/eq.
Density : 0.000 g/cm3
Volume (V) : 0.001 cm3
Text export
   Mode : Standard
   Time format : Elapsed
Cycle Definition : Charge/Discharge alternance
tR (h:m:s)          5:00:0.0000         
dER/dt (mV/h)       0.0                 
record              Ewe                 
dER (mV)            10.00               
dtR (s)             30.0000             
E range min (V)     -1.000              
E range max (V)     1.000               

mode	error	time/s	Ewe/V	
3	0	2.608475546133537E+005	-1.2624552E-003
3	0	2.608476564133694E+005	-1.1295415E-002
3	0	2.608478738134033E+005	-2.1345556E-002
3	0	2.608481438134441E+005	-3.1378519E-002
3	0	2.608484784134985E+005	-4.1425776E-002
3	0	2.608488652135576E+005	-5.1460687E-002
3	0	2.608493226136309E+005	-6.1480321E-002
3	0	2.608498596137139E+005	-7.1496136E-002
3	0	2.608505138138164E+005	-8.1504308E-002
3	0	2.608512780139372E+005	-9.1520123E-002
3	0	2.608521962140799E+005	-1.0152066E-001
3	0	2.608533034142526E+005	-1.1152502E-001
3	0	2.608546872144694E+005	-1.2155230E-001
3	0	2.608563734147332E+005	-1.3156429E-001
3	0	2.608585010150657E+005	-1.4157629E-001
3	0	2.608613512155120E+005	-1.5158446E-001
3	0	2.608656112161782E+005	-1.6160028E-001
3	0	2.608729592173276E+005	-1.7160846E-001
3	0	2.608924290203745E+005	-1.8162809E-001
3	0	2.609224290250684E+005	-1.8886407E-001
3	0	2.609524290297623E+005	-1.9361421E-001
3	0	2.609824290344561E+005	-1.9653153E-001
3	0	2.610124290391500E+005	-1.9941829E-001
3	0	2.610424290438439E+005	-2.0180100E-001
3	0	2.610724290485377E+005	-2.0366441E-001
3	0	2.611024290532316E+005	-2.0552400E-001
3	0	2.611324290579255E+005	-2.0695972E-001
3	0	2.611624290626189E+005	-2.0844512E-001
3	0	2.611924290673127E+005	-2.0994960E-001
3	0	2.612224290720066E+005	-2.1120204E-001
3	0	2.612524290767005E+005	-2.1228267E-001
3	0	2.612824290813943E+005	-2.1339002E-001
3	0	2.613124290860882E+005	-2.1431409E-001
3	0	2.613424290907821E+005	-2.1514270E-001
3	0	2.613724290954759E+005	-2.1589111E-001
3	0	2.614024291001698E+005	-2.1684954E-001
3	0	2.614324291048637E+005	-2.1770106E-001
3	0	2.614624291095575E+005	-2.1856022E-001
3	0	2.614924291142514E+005	-2.1947666E-001
3	0	2.615224291189453E+005	-2.2010288E-001
3	0	2.615524291236391E+005	-2.2086275E-001
3	0	2.615824291283330E+005	-2.2162643E-001
3	0	2.616124291330269E+005	-2.2203501E-001
3	0	2.616424291377207E+005	-2.2267270E-001
3	0	2.616724291424146E+005	-2.2319199E-001
3	0	2.617024291471085E+005	-2.2383350E-001
3	0	2.617324291518023E+005	-2.2427262E-001
3	0	2.617624291564962E+005	-2.2461246E-001
3	0	2.617924291611901E+005	-2.2502868E-001
3	0	2.618224291658839E+005	-2.2597183E-001
3	0	2.618524291705778E+005	-2.2638805E-001
3	0	2.618824291752717E+005	-2.2681953E-001
3	0	2.619124291799655E+005	-2.2715557E-001
3	0	2.619424291846594E+005	-2.2751451E-001
3	0	2.619724291893533E+005	-2.2773978E-001
3	0	2.620024291940471E+005	-2.2804525E-001
3	0	2.620324291987410E+005	-2.2843474E-001
3	0	2.620624292034348E+005	-2.2879750E-001
3	0	2.620924292081287E+005	-2.2882804E-001
3	0	2.621224292128226E+005	-2.2918317E-001
3	0	2.621524294099100E+005	-2.2937791E-001
3	0	2.621824295875579E+005	-2.2977503E-001
3	0	2.622124297652063E+005	-2.3001559E-001
3	0	2.622424299428547E+005	-2.3010340E-001
3	0	2.622724301205031E+005	-2.3038980E-001
3	0	2.623024302981514E+005	-2.3065709E-001
3	0	2.623324304757994E+005	-2.3093201E-001
3	0	2.623624306534478E+005	-2.3105039E-001
3	0	2.623924308310961E+005	-2.3133296E-001
3	0	2.624224310087445E+005	-2.3155825E-001
3	0	2.624524311863929E+005	-2.3183699E-001
3	0	2.624824313640413E+005	-2.3217301E-001
3	0	2.625124315416897E+005	-2.3245175E-001
3	0	2.625424317193381E+005	-2.3250140E-001
3	0	2.625724318969864E+005	-2.3277251E-001
3	0	2.626024320746344E+005	-2.3298252E-001
3	0	2.626324322522827E+005	-2.3311998E-001
3	0	2.626624324299311E+005	-2.3327655E-001
3	0	2.626924326075795E+005	-2.3350184E-001
3	0	2.627224327852279E+005	-2.3373094E-001
3	0	2.627524329628763E+005	-2.3389132E-001
3	0	2.627824331405247E+005	-2.3398297E-001
3	0	2.628124333181730E+005	-2.3423116E-001
3	0	2.628424334958214E+005	-2.3454428E-001
3	0	2.628724336734691E+005	-2.3481920E-001
3	0	2.629024338511173E+005	-2.3478866E-001
3	0	2.629324340287654E+005	-2.3507886E-001
3	0	2.629624342064136E+005	-2.3531561E-001
3	0	2.629924343840620E+005	-2.3518577E-001
3	0	2.630224345617101E+005	-2.3548743E-001
3	0	2.630524347393583E+005	-2.3545307E-001
3	0	2.630824349170064E+005	-2.3542634E-001
3	0	2.631124350946546E+005	-2.3572418E-001
3	0	2.631424352723022E+005	-2.3580818E-001
3	0	2.631724354499504E+005	-2.3575473E-001
3	0	2.632024356275987E+005	-2.3572037E-001
3	0	2.632324358052469E+005	-2.3591128E-001
3	0	2.632624359828954E+005	-2.3605639E-001
3	0	2.632924361605437E+005	-2.3615949E-001
3	0	2.633224363381919E+005	-2.3624349E-001
3	0	2.633524365158401E+005	-2.3640387E-001
3	0	2.633824366934884E+005	-2.3664060E-001
3	0	2.634124368711362E+005	-2.3669024E-001
3	0	2.634424370487845E+005	-2.3675898E-001
3	0	2.634724372264327E+005	-2.3688118E-001
3	0	2.635024374040810E+005	-2.3704153E-001
3	0	2.635324375817295E+005	-2.3722866E-001
3	0	2.635624377593778E+005	-2.3710264E-001
3	0	2.635924379370259E+005	-2.3728211E-001
3	0	2.636224381146741E+005	-2.3728974E-001
3	0	2.636524382923224E+005	-2.3728211E-001
3	0	2.636824384699702E+005	-2.3741195E-001
3	0	2.637124386476184E+005	-2.3745394E-001
3	0	2.637424388252667E+005	-2.3756467E-001
3	0	2.637724390029149E+005	-2.3764105E-001
3	0	2.638024391805634E+005	-2.3787397E-001
3	0	2.638324393582117E+005	-2.3812218E-001
3	0	2.638624395358597E+005	-2.3820618E-001
3	0	2.638924397135079E+005	-2.3826727E-001
3	0	2.639224398911560E+005	-2.3823673E-001
3	0	2.639524400688037E+005	-2.3827873E-001
3	0	2.639824402464521E+005	-2.3823673E-001
3	0	2.640124404241003E+005	-2.3814508E-001
3	0	2.640424406017484E+005	-2.3849256E-001
3	0	2.640724407793968E+005	-2.3834747E-001
3	0	2.641024409570450E+005	-2.3844674E-001
3	0	2.641324411346929E+005	-2.3848110E-001
3	0	2.641624413123410E+005	-2.3859565E-001
3	0	2.641924414899894E+005	-2.3864530E-001
3	0	2.642224416676373E+005	-2.3871402E-001
3	0	2.642524418452857E+005	-2.3886678E-001
3	0	2.642824420229341E+005	-2.3891260E-001
3	0	2.643124422005825E+005	-2.3905769E-001
3	0	2.643424423782309E+005	-2.3917224E-001
3	0	2.643724425558792E+005	-2.3935553E-001
3	0	2.644024427335276E+005	-2.3945862E-001
3	0	2.644324429111760E+005	-2.3957318E-001
3	0	2.644624430888244E+005	-2.3959608E-001
3	0	2.644924432664723E+005	-2.3977555E-001
3	0	2.645224434441207E+005	-2.3982902E-001
3	0	2.645524436217691E+005	-2.3978320E-001
3	0	2.645824437994175E+005	-2.3987103E-001
3	0	2.646124439770659E+005	-2.3989776E-001
3	0	2.646424441547142E+005	-2.4014978E-001
3	0	2.646724443323626E+005	-2.4021469E-001
3	0	2.647024445100110E+005	-2.4028341E-001
3	0	2.647324446876594E+005	-2.4050489E-001
3	0	2.647624448653073E+005	-2.4086764E-001
3	0	2.647924450429557E+005	-2.4087527E-001
3	0	2.648224452206041E+005	-2.4089438E-001
3	0	2.648524453982525E+005	-2.4098219E-001
3	0	2.648824455759004E+005	-2.4094783E-001
3	0	2.649124457535483E+005	-2.4095164E-001
3	0	2.649424459311962E+005	-2.4100128E-001
3	0	2.649724461088441E+005	-2.4105474E-001
3	0	2.650024462864921E+005	-2.4109675E-001
3	0	2.650324464641400E+005	-2.4110439E-001
3	0	2.650624466417879E+005	-2.4116547E-001
3	0	2.650924468194358E+005	-2.4115403E-001
3	0	2.651224469970837E+005	-2.4124184E-001
3	0	2.651524471747316E+005	-2.4136022E-001
3	0	2.651824473523796E+005	-2.4145949E-001
3	0	2.652124475300275E+005	-2.4145950E-001
3	0	2.652424477076754E+005	-2.4153587E-001
3	0	2.652724478853233E+005	-2.4170007E-001
3	0	2.653024480629712E+005	-2.4176116E-001
3	0	2.653324482406192E+005	-2.4190627E-001
3	0	2.653624484182671E+005	-2.4194062E-001
3	0	2.653924485959150E+005	-2.4206664E-001
3	0	2.654224487735629E+005	-2.4206282E-001
3	0	2.654524489512108E+005	-2.4214301E-001
3	0	2.654824491288587E+005	-2.4219266E-001
3	0	2.655124493065067E+005	-2.4244848E-001
3	0	2.655424494841546E+005	-2.4246758E-001
3	0	2.655724496618025E+005	-2.4263941E-001
3	0	2.656024498394504E+005	-2.4283414E-001
3	0	2.656324500170983E+005	-2.4282651E-001
3	0	2.656624501947463E+005	-2.4313961E-001
3	0	2.656924503723942E+005	-2.4318545E-001
3	0	2.657224505500421E+005	-2.4346037E-001
3	0	2.657524507276900E+005	-2.4299070E-001
3	0	2.657824509053379E+005	-2.4302125E-001
3	0	2.658124510829858E+005	-2.4301362E-001
3	0	2.658424512606338E+005	-2.4295634E-001
3	0	2.658724514382817E+005	-2.4303271E-001
3	0	2.659024516159296E+005	-2.4301744E-001
3	0	2.659324517935775E+005	-2.4296780E-001
3	0	2.659624519712254E+005	-2.4311671E-001
3	0	2.659924521488734E+005	-2.4313962E-001
3	0	2.660224523265213E+005	-2.4305561E-001
3	0	2.660524525041692E+005	-2.4312054E-001
3	0	2.660824526818171E+005	-2.4310145E-001
3	0	2.661124528594650E+005	-2.4318545E-001
3	0	2.661424530371130E+005	-2.4327710E-001
3	0	2.661724532147609E+005	-2.4337636E-001
3	0	2.662024533924088E+005	-2.4330001E-001
3	0	2.662324535700567E+005	-2.4339546E-001
3	0	2.662624537477046E+005	-2.4335729E-001
3	0	2.662924539253525E+005	-2.4347566E-001
3	0	2.663224541030005E+005	-2.4346037E-001
3	0	2.663524542806484E+005	-2.4347946E-001
3	0	2.663824544582963E+005	-2.4333437E-001
3	0	2.664124546359442E+005	-2.4332291E-001
3	0	2.664424548135921E+005	-2.4341838E-001
3	0	2.664724549912401E+005	-2.4358256E-001
3	0	2.665024551688880E+005	-2.4359402E-001
3	0	2.665324553465359E+005	-2.4358256E-001
3	0	2.665624555241838E+005	-2.4405223E-001
3	0	2.665924557018317E+005	-2.4400260E-001
3	0	2.666224558794796E+005	-2.4427752E-001
3	0	2.666524560571276E+005	-2.4427371E-001
3	0	2.666824562347755E+005	-2.4469756E-001
3	0	2.667124564124234E+005	-2.4461737E-001
3	0	2.667424565900713E+005	-2.4509850E-001
3	0	2.667724567677192E+005	-2.4466701E-001
3	0	2.668024569453672E+005	-2.4501449E-001
3	0	2.668324571230151E+005	-2.4507558E-001
3	0	2.668624573006630E+005	-2.4509086E-001
3	0	2.668924574783109E+005	-2.4562161E-001
3	0	2.669224576559588E+005	-2.4542688E-001
3	0	2.669524578336068E+005	-2.4574001E-001
3	0	2.669824580112547E+005	-2.4789742E-001
3	0	2.670124581889026E+005	-2.4794325E-001
3	0	2.670424583665505E+005	-2.4784778E-001
3	0	2.670724585441984E+005	-2.4546126E-001
3	0	2.671024587218463E+005	-2.4671370E-001
3	0	2.671324588994943E+005	-2.4687026E-001
3	0	2.671624590771422E+005	-2.4648459E-001
3	0	2.671924592547901E+005	-2.4660297E-001
3	0	2.672224594324380E+005	-2.4670607E-001
3	0	2.672524596100859E+005	-2.4624020E-001
3	0	2.672824597877339E+005	-2.4593474E-001
3	0	2.673124599653818E+005	-2.4617147E-001
3	0	2.673424601430297E+005	-2.4653041E-001
3	0	2.673724603206776E+005	-2.4670225E-001
3	0	2.674024604983255E+005	-2.4670605E-001
3	0	2.674324606759734E+005	-2.4638914E-001
3	0	2.674624608536214E+005	-2.4669842E-001
3	0	2.674924610312697E+005	-2.4704590E-001
3	0	2.675224612089181E+005	-2.4708410E-001
3	0	2.675524613865665E+005	-2.4677098E-001
3	0	2.675824615642149E+005	-2.4709937E-001
3	0	2.676124617418633E+005	-2.4724065E-001
3	0	2.676424619195112E+005	-2.4722919E-001
3	0	2.676724620971596E+005	-2.4741630E-001
3	0	2.677024622748080E+005	-2.4731703E-001
3	0	2.677324624524564E+005	-2.4726357E-001
3	0	2.677624626301047E+005	-2.4755377E-001
3	0	2.677924628077531E+005	-2.4747740E-001
3	0	2.678224629854015E+005	-2.4740866E-001
3	0	2.678524631630499E+005	-2.4762632E-001
3	0	2.678824633406983E+005	-2.4757667E-001
3	0	2.679124635183462E+005	-2.4777143E-001
3	0	2.679424636959946E+005	-2.4783634E-001
3	0	2.679724638736430E+005	-2.4806926E-001
3	0	2.680024640512913E+005	-2.4809599E-001
3	0	2.680324642289397E+005	-2.4833274E-001
3	0	2.680624644065881E+005	-2.4817999E-001
3	0	2.680924645842365E+005	-2.4832891E-001
3	0	2.681224647618849E+005	-2.4849312E-001
3	0	2.681524649395330E+005	-2.4860767E-001
3	0	2.681824651171807E+005	-2.4874893E-001
3	0	2.682124652948289E+005	-2.4876039E-001
3	0	2.682424654724770E+005	-2.4889022E-001
3	0	2.682724656501252E+005	-2.4896277E-001
3	0	2.683024658277736E+005	-2.4906206E-001
3	0	2.683324660054217E+005	-2.4921480E-001
3	0	2.683624661830699E+005	-2.4925679E-001
3	0	2.683924663607180E+005	-2.4935989E-001
3	0	2.684224665383662E+005	-2.4940573E-001
3	0	2.684524667160138E+005	-2.4947062E-001
3	0	2.684824668936621E+005	-2.4965774E-001
3	0	2.685124670713104E+005	-2.4967301E-001
3	0	2.685424672489587E+005	-2.4992120E-001
3	0	2.685724674266072E+005	-2.5001666E-001
3	0	2.686024676042554E+005	-2.5016558E-001
3	0	2.686324677819036E+005	-2.5013122E-001
3	0	2.686624679595518E+005	-2.5004339E-001
3	0	2.686924681371996E+005	-2.5022668E-001
3	0	2.687224683148479E+005	-2.5021142E-001
3	0	2.687524684924962E+005	-2.5034887E-001
3	0	2.687824686701444E+005	-2.5041762E-001
3	0	2.688124688477927E+005	-2.5053596E-001
3	0	2.688424690254412E+005	-2.5064290E-001
3	0	2.688724692030895E+005	-2.5065434E-001
3	0	2.689024693807376E+005	-2.5080708E-001
3	0	2.689324695583858E+005	-2.5093308E-001
3	0	2.689624697360336E+005	-2.5089490E-001
3	0	2.689924699136819E+005	-2.5102857E-001
3	0	2.690224700913301E+005	-2.5116602E-001
3	0	2.690524702689784E+005	-2.5112018E-001
3	0	2.690824704466267E+005	-2.5132257E-001
3	0	2.691124706242752E+005	-2.5131875E-001
3	0	2.691424708019234E+005	-2.5144094E-001
3	0	2.691724709795713E+005	-2.5155169E-001
3	0	2.692024711572195E+005	-2.5154024E-001
3	0	2.692324713348672E+005	-2.5158986E-001
3	0	2.692624715125153E+005	-2.5154024E-001
3	0	2.692924716901637E+005	-2.5168917E-001
3	0	2.693224718678119E+005	-2.5180751E-001
3	0	2.693524720454600E+005	-2.5186479E-001
3	0	2.693824722231084E+005	-2.5188389E-001
3	0	2.694124724007566E+005	-2.5198317E-001
3	0	2.694424725784045E+005	-2.5201756E-001
3	0	2.694724727560529E+005	-2.5217408E-001
3	0	2.695024729337008E+005	-2.5230774E-001
3	0	2.695324731113492E+005	-2.5227717E-001
3	0	2.695624732889975E+005	-2.5254831E-001
3	0	2.695924734666459E+005	-2.5241849E-001
3	0	2.696224736442943E+005	-2.5245667E-001
3	0	2.696524738219427E+005	-2.5255594E-001
3	0	2.696824739995911E+005	-2.5253686E-001
3	0	2.697124741772395E+005	-2.5259030E-001
3	0	2.697424743548878E+005	-2.5267050E-001
3	0	2.697724745325358E+005	-2.5293398E-001
3	0	2.698024747101841E+005	-2.5292251E-001
3	0	2.698324748878325E+005	-2.5296450E-001
3	0	2.698624750654809E+005	-2.5308290E-001
3	0	2.698924752431293E+005	-2.5304851E-001
3	0	2.699224754207777E+005	-2.5316688E-001
3	0	2.699524755984261E+005	-2.5311345E-001
3	0	2.699824757760745E+005	-2.5316307E-001
3	0	2.700124759537228E+005	-2.5327763E-001
3	0	2.700424761313708E+005	-2.5327763E-001
3	0	2.700724763090191E+005	-2.5328144E-001
3	0	2.701024764866675E+005	-2.5345325E-001
3	0	2.701324766643159E+005	-2.5340745E-001
3	0	2.701624768419638E+005	-2.5350294E-001
3	0	2.701924770196117E+005	-2.5362512E-001
3	0	2.702224771972597E+005	-2.5365567E-001
3	0	2.702524773749076E+005	-2.5370148E-001
3	0	2.702824775525555E+005	-2.5378168E-001
3	0	2.703124777302034E+005	-2.5382367E-001
3	0	2.703424779078513E+005	-2.5385803E-001
3	0	2.703724780854993E+005	-2.5383511E-001
3	0	2.704024782631472E+005	-2.5396878E-001
3	0	2.704324784407951E+005	-2.5402606E-001
3	0	2.704624786184430E+005	-2.5404894E-001
3	0	2.704924787960909E+005	-2.5418261E-001
3	0	2.705224789737388E+005	-2.5411388E-001
3	0	2.705524791513868E+005	-2.5404513E-001
3	0	2.705824793290347E+005	-2.5412914E-001
3	0	2.706124795066826E+005	-2.5409859E-001
3	0	2.706424796843305E+005	-2.5419405E-001
3	0	2.706724798619784E+005	-2.5419405E-001
3	0	2.707024800396264E+005	-2.5422078E-001
3	0	2.707324802172743E+005	-2.5429717E-001
3	0	2.707624803949222E+005	-2.5434297E-001
3	0	2.707924805725701E+005	-2.5435826E-001
3	0	2.708224807502180E+005	-2.5443080E-001
3	0	2.708524809278660E+005	-2.5444606E-001
3	0	2.708824811055139E+005	-2.5452244E-001
3	0	2.709124812831618E+005	-2.5449574E-001
3	0	2.709424814608097E+005	-2.5461790E-001
3	0	2.709724816384576E+005	-2.5446135E-001
3	0	2.710024818161055E+005	-2.5451481E-001
3	0	2.710324819937535E+005	-2.5453389E-001
3	0	2.710624821714014E+005	-2.5463700E-001
3	0	2.710924823490493E+005	-2.5464463E-001
3	0	2.711224825266972E+005	-2.5468665E-001
3	0	2.711524827043451E+005	-2.5463319E-001
3	0	2.711824828819931E+005	-2.5544652E-001
3	0	2.712124830596410E+005	-2.5546941E-001
3	0	2.712424832372889E+005	-2.5545034E-001
3	0	2.712724834149368E+005	-2.5543889E-001
3	0	2.713024835925847E+005	-2.5488901E-001
3	0	2.713324837702326E+005	-2.5484702E-001
3	0	2.713624839478806E+005	-2.5490046E-001
3	0	2.713924841255285E+005	-2.5513339E-001
3	0	2.714224843031764E+005	-2.5520974E-001
3	0	2.714524844808243E+005	-2.5503412E-001
3	0	2.714824846584722E+005	-2.5504559E-001
3	0	2.715124848361202E+005	-2.5505322E-001
3	0	2.715424850137681E+005	-2.5513721E-001
3	0	2.715724851914160E+005	-2.5530142E-001
3	0	2.716024853690639E+005	-2.5522122E-001
3	0	2.716324855467118E+005	-2.5531667E-001
3	0	2.716624857243598E+005	-2.5527468E-001
3	0	2.716924859020077E+005	-2.5537777E-001
3	0	2.717224860796556E+005	-2.5539687E-001
3	0	2.717524862573035E+005	-2.5540453E-001
3	0	2.717824864349514E+005	-2.5540832E-001
3	0	2.718124866125993E+005	-2.5556490E-001
3	0	2.718424867902473E+005	-2.5546178E-001
3	0	2.718724869678952E+005	-2.5554961E-001
3	0	2.719024871455431E+005	-2.5567561E-001
3	0	2.719324873231910E+005	-2.5568324E-001
3	0	2.719624875008389E+005	-2.5564507E-001
3	0	2.719924876784869E+005	-2.5565654E-001
3	0	2.720224878561348E+005	-2.5568324E-001
3	0	2.720524880337827E+005	-2.5569853E-001
3	0	2.720824882114306E+005	-2.5580543E-001
3	0	2.721124883890785E+005	-2.5578636E-001
3	0	2.721424885667264E+005	-2.5595820E-001
3	0	2.721724887443744E+005	-2.5578636E-001
3	0	2.722024889220223E+005	-2.5585508E-001
3	0	2.722324890996702E+005	-2.5595817E-001
3	0	2.722624892773181E+005	-2.5587037E-001
3	0	2.722924894549660E+005	-2.5582835E-001
3	0	2.723224896326140E+005	-2.5591618E-001
3	0	2.723524898102619E+005	-2.5600782E-001
3	0	2.723824899879098E+005	-2.5616056E-001
3	0	2.724124901655577E+005	-2.5599256E-001
3	0	2.724424903432056E+005	-2.5601926E-001
3	0	2.724724905208535E+005	-2.5610709E-001
3	0	2.725024906985015E+005	-2.5618348E-001
3	0	2.725324908761494E+005	-2.5632095E-001
3	0	2.725624910537973E+005	-2.5624838E-001
3	0	2.725924912314452E+005	-2.5632092E-001
3	0	2.726224914090931E+005	-2.5637439E-001
3	0	2.726524915867411E+005	-2.5636676E-001
3	0	2.726824917643890E+005	-2.5646222E-001
3	0	2.727124919420369E+005	-2.5668371E-001
3	0	2.727424921196848E+005	-2.5648513E-001
3	0	2.727724922973332E+005	-2.5639731E-001
3	0	2.728024924749816E+005	-2.5658825E-001
3	0	2.728324926526300E+005	-2.5664932E-001
3	0	2.728624928302784E+005	-2.5661495E-001
3	0	2.728924930079267E+005	-2.5663406E-001
3	0	2.729224931855747E+005	-2.5664169E-001
3	0	2.729524933632230E+005	-2.5671422E-001
3	0	2.729824935408714E+005	-2.5687462E-001
3	0	2.730124937185198E+005	-2.5671807E-001
3	0	2.730424938961682E+005	-2.5681353E-001
3	0	2.730724940738166E+005	-2.5690135E-001
3	0	2.731024942514650E+005	-2.5697771E-001
3	0	2.731324944291133E+005	-2.5701591E-001
3	0	2.731624946067617E+005	-2.5708082E-001
3	0	2.731924947844096E+005	-2.5709608E-001
3	0	2.732224949620580E+005	-2.5676769E-001
3	0	2.732524951397064E+005	-2.5685552E-001
3	0	2.732824953173548E+005	-2.5701973E-001
3	0	2.733124954950032E+005	-2.5707698E-001
3	0	2.733424956726516E+005	-2.5726029E-001
3	0	2.733724958503000E+005	-2.5697008E-001
3	0	2.734024960279483E+005	-2.5698918E-001
3	0	2.734324962055965E+005	-2.5706553E-001
3	0	2.734624963832442E+005	-2.5700444E-001
3	0	2.734924965608923E+005	-2.5701973E-001
3	0	2.735224967385405E+005	-2.5710753E-001
3	0	2.735524969161886E+005	-2.5726411E-001
3	0	2.735824970938368E+005	-2.5730228E-001
3	0	2.736124972714852E+005	-2.5713429E-001
3	0	2.736424974491333E+005	-2.5710374E-001
3	0	2.736724976267815E+005	-2.5718009E-001
3	0	2.737024978044296E+005	-2.5722975E-001
3	0	2.737324979820773E+005	-2.5717628E-001
3	0	2.737624981597256E+005	-2.5732520E-001
3	0	2.737924983373738E+005	-2.5710371E-001
3	0	2.738224985150221E+005	-2.5719154E-001
3	0	2.738524986926706E+005	-2.5718772E-001
3	0	2.738824988703189E+005	-2.5730228E-001
3	0	2.739124990479671E+005	-2.5749320E-001
3	0	2.739424992256153E+005	-2.5742829E-001
3	0	2.739724994032636E+005	-2.5731754E-001
3	0	2.740024995809114E+005	-2.5734428E-001
3	0	2.740324997585596E+005	-2.5740537E-001
3	0	2.740624999362079E+005	-2.5752375E-001
3	0	2.740925001138562E+005	-2.5744358E-001
3	0	2.741225002915047E+005	-2.5742829E-001
3	0	2.741525004691529E+005	-2.5746647E-001
3	0	2.741825006468010E+005	-2.5752759E-001
3	0	2.742125008244493E+005	-2.5750464E-001
3	0	2.742425010020975E+005	-2.5767648E-001
3	0	2.742725011797453E+005	-2.5760013E-001
3	0	2.743025013573936E+005	-2.5768033E-001
3	0	2.743325015350418E+005	-2.5755429E-001
3	0	2.743625017126901E+005	-2.5760013E-001
3	0	2.743925018903386E+005	-2.5762302E-001
3	0	2.744225020679869E+005	-2.5753140E-001
3	0	2.744525022456348E+005	-2.5746650E-001
3	0	2.744825024232829E+005	-2.5753522E-001
3	0	2.745125026009311E+005	-2.5758865E-001
3	0	2.745425027785788E+005	-2.5763449E-001
3	0	2.745725029562269E+005	-2.5768414E-001
3	0	2.746025031338753E+005	-2.5779486E-001
3	0	2.746325033115235E+005	-2.5774524E-001
3	0	2.746625034891719E+005	-2.5779870E-001
3	0	2.746925036668200E+005	-2.5770321E-001
3	0	2.747225038444679E+005	-2.5766504E-001
3	0	2.747525040221163E+005	-2.5763831E-001
3	0	2.747825041997647E+005	-2.5765738E-001
3	0	2.748125043774126E+005	-2.5760013E-001
3	0	2.748425045550610E+005	-2.5768030E-001
3	0	2.748725047327094E+005	-2.5750083E-001
3	0	2.749025049103578E+005	-2.5753140E-001
3	0	2.749325050880061E+005	-2.5762305E-001
3	0	2.749625052656545E+005	-2.5761923E-001
3	0	2.749925054433029E+005	-2.5757340E-001
3	0	2.750225056209513E+005	-2.5774142E-001
3	0	2.750525057985997E+005	-2.5769940E-001
3	0	2.750825059762476E+005	-2.5767267E-001
3	0	2.751125061538960E+005	-2.5774524E-001
3	0	2.751425063315444E+005	-2.5779489E-001
3	0	2.751725065091928E+005	-2.5785214E-001
3	0	2.752025066868411E+005	-2.5803161E-001
3	0	2.752325068644895E+005	-2.5807360E-001
3	0	2.752625070421379E+005	-2.5809270E-001
3	0	2.752925072197863E+005	-2.5785214E-001
3	0	2.753225073974347E+005	-2.5787506E-001
3	0	2.753525075750826E+005	-2.5799724E-001
3	0	2.753825077527310E+005	-2.5800869E-001
3	0	2.754125079303794E+005	-2.5798196E-001
3	0	2.754425081080273E+005	-2.5803924E-001
3	0	2.754725082856752E+005	-2.5807360E-001
3	0	2.755025084633231E+005	-2.5798580E-001
3	0	2.755325086409710E+005	-2.5801250E-001
3	0	2.755625088186190E+005	-2.5808889E-001
3	0	2.755925089962669E+005	-2.5824544E-001
3	0	2.756225091739148E+005	-2.5821108E-001
3	0	2.756525093515627E+005	-2.5822252E-001
3	0	2.756825095292106E+005	-2.5817290E-001
3	0	2.757125097068585E+005	-2.5817671E-001
3	0	2.757425098845065E+005	-2.5809270E-001
3	0	2.757725100621544E+005	-2.5808126E-001
3	0	2.758025102398023E+005	-2.5840965E-001
3	0	2.758325104174502E+005	-2.5813854E-001
3	0	2.758625105950981E+005	-2.5811180E-001
3	0	2.758925107727461E+005	-2.5815380E-001
3	0	2.759225109503940E+005	-2.5819582E-001
3	0	2.759525111280419E+005	-2.5823781E-001
3	0	2.759825113056898E+005	-2.5827980E-001
3	0	2.760125114833377E+005	-2.5821871E-001
3	0	2.760425116609856E+005	-2.5828362E-001
3	0	2.760725118386336E+005	-2.5820726E-001
3	0	2.761025120162815E+005	-2.5830656E-001
3	0	2.761325121939294E+005	-2.5831038E-001
3	0	2.761625123715773E+005	-2.5832945E-001
3	0	2.761925125492252E+005	-2.5830272E-001
3	0	2.762225127268732E+005	-2.5824925E-001
3	0	2.762525129045211E+005	-2.5827983E-001
3	0	2.762825130821690E+005	-2.5833708E-001
3	0	2.763125132598169E+005	-2.5821874E-001
3	0	2.763425134374648E+005	-2.5827980E-001
3	0	2.763725136151128E+005	-2.5855091E-001
3	0	2.764025137927607E+005	-2.5855473E-001
3	0	2.764325139704086E+005	-2.5833327E-001
3	0	2.764625141480565E+005	-2.5838292E-001
3	0	2.764925143257044E+005	-2.5842109E-001
3	0	2.765225145033523E+005	-2.5847074E-001
3	0	2.765525146810003E+005	-2.5839055E-001
3	0	2.765825148586482E+005	-2.5849745E-001
3	0	2.766125150362961E+005	-2.5849366E-001
3	0	2.766425152139440E+005	-2.5859293E-001
3	0	2.766725153915919E+005	-2.5838292E-001
3	0	2.767025155692399E+005	-2.5841728E-001
3	0	2.767325157468878E+005	-2.5849748E-001
3	0	2.767625159245357E+005	-2.5841346E-001
3	0	2.767925161021836E+005	-2.5859293E-001
3	0	2.768225162798315E+005	-2.5847837E-001
3	0	2.768525164574794E+005	-2.5861201E-001
3	0	2.768825166351274E+005	-2.5861582E-001
3	0	2.769125168127753E+005	-2.5859293E-001
3	0	2.769425169904232E+005	-2.5862345E-001
3	0	2.769725171680711E+005	-2.5860819E-001
3	0	2.770025173457190E+005	-2.5864258E-001
3	0	2.770325175233670E+005	-2.5869983E-001
3	0	2.770625177010149E+005	-2.5857383E-001
3	0	2.770925178786628E+005	-2.5880677E-001
3	0	2.771225180563107E+005	-2.5900531E-001
3	0	2.771525182339586E+005	-2.5890985E-001
3	0	2.771825184116066E+005	-2.5893658E-001
3	0	2.772125185892545E+005	-2.5870749E-001
3	0	2.772425187669024E+005	-2.5904351E-001
3	0	2.772725189445503E+005	-2.5902060E-001
3	0	2.773025191221982E+005	-2.5902441E-001
3	0	2.773325192998461E+005	-2.5872657E-001
3	0	2.773625194774941E+005	-2.5866166E-001
3	0	2.773925196551420E+005	-2.5861967E-001
3	0	2.774225198327899E+005	-2.5861201E-001
3	0	2.774525200104378E+005	-2.5862730E-001
3	0	2.774825201880857E+005	-2.5864640E-001
3	0	2.775125203657337E+005	-2.5850511E-001
3	0	2.775425205433816E+005	-2.5850892E-001
3	0	2.775725207210295E+005	-2.5850129E-001
3	0	2.776025208986774E+005	-2.5842872E-001
3	0	2.776325210763253E+005	-2.5851274E-001
3	0	2.776625212539732E+005	-2.5869220E-001
3	0	2.776925214316212E+005	-2.5870746E-001
3	0	2.777225216092691E+005	-2.5858912E-001
3	0	2.777525217869170E+005	-2.5860438E-001
3	0	2.777825219645649E+005	-2.5863492E-001
3	0	2.778125221422128E+005	-2.5865403E-001
3	0	2.778425223198608E+005	-2.5868458E-001
3	0	2.778725224975087E+005	-2.5861204E-001
3	0	2.779025226751566E+005	-2.5855854E-001
3	0	2.779325228528045E+005	-2.5864637E-001
3	0	2.779625230304524E+005	-2.5873801E-001
3	0	2.779925232081003E+005	-2.5863111E-001
3	0	2.780225233857483E+005	-2.5873038E-001
3	0	2.780525235633967E+005	-2.5899005E-001
3	0	2.780825237410450E+005	-2.5892130E-001
3	0	2.781125239186934E+005	-2.5865784E-001
3	0	2.781425240963418E+005	-2.5902441E-001
3	0	2.781725242739902E+005	-2.5874949E-001
3	0	2.782025244516386E+005	-2.5879529E-001
3	0	2.782325246292865E+005	-2.5890222E-001
3	0	2.782625248069349E+005	-2.5886020E-001
3	0	2.782925249845833E+005	-2.5879529E-001
3	0	2.783225251622316E+005	-2.5876093E-001
3	0	2.783525253398800E+005	-2.5877619E-001
3	0	2.783825255175284E+005	-2.5872657E-001
3	0	2.784125256951768E+005	-2.5876093E-001
3	0	2.784425258728252E+005	-2.5876859E-001
3	0	2.784725260504736E+005	-2.5880295E-001
3	0	2.785025262281215E+005	-2.5882968E-001
3	0	2.785325264057699E+005	-2.5887167E-001
3	0	2.785625265834183E+005	-2.5881439E-001
3	0	2.785925267610666E+005	-2.5880677E-001
3	0	2.786225269387150E+005	-2.5878766E-001
3	0	2.786525271163634E+005	-2.5879148E-001
3	0	2.786825272940118E+005	-2.5888312E-001
3	0	2.787125274716599E+005	-2.5886020E-001
3	0	2.787425276493081E+005	-2.5878766E-001
3	0	2.787725278269558E+005	-2.5876093E-001
3	0	2.788025280046039E+005	-2.5885257E-001
3	0	2.788325281822521E+005	-2.5876856E-001
3	0	2.788475425710715E+005	-2.5874564E-001