EC-Lab ASCII FILE
Nb header lines : 57                          

Chronopotentiometry

Run on channel : 3 (SN 13150)
User : 
Electrode connection : standard
Potential control : Ewe
Ewe ctrl range : min = -1.00 V, max = 1.00 V
Ewe,I filtering : 5 Hz
Safety Limits :
	Do not start on E overload
Channel : Floating
Acquisition started on : 07/01/2024 16:51:05.709
Loaded Setting File :  C:\Users\mAtsuhitA\Desktop\Oyafuso\20240624_???????4\1540_A.mps
Saved on :
	File : 600_B_12_CP_C03.mpr
	Directory : C:\Users\mAtsuhitA\Desktop\Oyafuso\20240624_???????4\600_B\
	Host : 192.109.209.100
Device : VSP-300 (SN 0834)
Address : 192.109.209.128
EC-Lab for windows v11.50 (software)
Internet server v11.50 (firmware)
Command interpretor v11.50 (firmware)
Electrode material : 
Initial state : 
Electrolyte : 
Comments : 
Cable : standard
Electrode surface area : 0.001 cm2
Characteristic mass : 0.001 g
Equivalent Weight : 0.000 g/eq.
Density : 0.000 g/cm3
Volume (V) : 0.001 cm3
Text export
   Mode : Standard
   Time format : Elapsed
Cycle Definition : Charge/Discharge alternance
Is                  200.000             
unit Is             nA                  
vs.                 <None>              
ts (h:m:s)          1000:40:0.0000      
EM (V)              0.000               
dQM                 200.133             
unit dQM            uA.h                
record              Ewe                 
dEs (mV)            10.00               
dts (s)             10.0000             
E range min (V)     -1.000              
E range max (V)     1.000               
I Range             1 uA                
Bandwidth           8                   
goto Ns'            0                   
nc cycles           0                   

mode	ox/red	error	control changes	Ns changes	counter inc.	Ns	time/s	control/mA	Ewe/V	I/mA	dQ/C	(Q-Qo)/C	half cycle	Q charge/discharge/mA.h	I Range	Energy charge/W.h	Energy discharge/W.h	Capacitance charge/uF	Capacitance discharge/uF	step time/s	Q discharge/mA.h	Q charge/mA.h	Capacity/mA.h	Efficiency/%	cycle number	P/W	
1	1	0	1	0	0	0	2.796329625858781E+005	1.9999999E-004	-2.5437137E-001	-1.4057107E-007	0.0000000E+000	0.0000000E+000	0	0.000000000000000E+000	43	0.000000000000000E+000	0.000000000000000E+000	0.000000000000000E+000	0.000000000000000E+000	2.796329625858781E+005	0.000000000000000E+000	0.000000000000000E+000	0.000000000000000E+000	0.0000000E+000	0.000000000000000E+000	3.5757258E-011
1	1	0	1	0	0	0	2.796330777857974E+005	1.9999999E-004	-2.4433841E-001	1.5662391E-004	6.3283854E-009	6.3283854E-009	0	1.757884847346070E-009	43	4.295187852456693E-013	0.000000000000000E+000	0.000000000000000E+000	0.000000000000000E+000	2.796330777857974E+005	0.000000000000000E+000	1.757884847346070E-009	1.757884847346070E-009	0.0000000E+000	0.000000000000000E+000	-3.8269235E-008
1	1	0	1	0	0	0	2.796332299856879E+005	1.9999999E-004	-2.3428828E-001	2.0049853E-004	3.6408551E-008	3.6408551E-008	0	1.011348677169474E-008	43	2.387138348708818E-012	0.000000000000000E+000	3.622693634662255E+000	0.000000000000000E+000	2.796332299856879E+005	0.000000000000000E+000	1.011348677169474E-008	1.011348677169474E-008	0.0000000E+000	0.000000000000000E+000	-4.6974456E-008
1	1	0	1	0	0	0	2.796334881854877E+005	1.9999999E-004	-2.2427249E-001	1.9965324E-004	8.7921592E-008	8.7921592E-008	0	2.442266460897111E-008	43	5.596293285655984E-012	0.000000000000000E+000	4.381638064979752E+000	0.000000000000000E+000	2.796334881854877E+005	0.000000000000000E+000	2.442266460897111E-008	2.442266460897111E-008	0.0000000E+000	0.000000000000000E+000	-4.4776730E-008
1	1	0	1	0	0	0	2.796338471852257E+005	1.9999999E-004	-2.1424153E-001	1.9968765E-004	1.5959650E-007	1.5959650E-007	0	4.433236145890737E-008	43	9.861777289648953E-012	0.000000000000000E+000	5.302760119063615E+000	0.000000000000000E+000	2.796338471852257E+005	0.000000000000000E+000	4.433236145890737E-008	4.433236145890737E-008	0.0000000E+000	0.000000000000000E+000	-4.2781391E-008
1	1	0	1	0	0	0	2.796343535848521E+005	1.9999999E-004	-2.0424099E-001	1.9971443E-004	2.6072254E-007	2.6072254E-007	0	7.242293119609361E-008	43	1.559902313730545E-011	0.000000000000000E+000	6.502228370529926E+000	0.000000000000000E+000	2.796343535848521E+005	0.000000000000000E+000	7.242293119609361E-008	7.242293119609361E-008	0.0000000E+000	0.000000000000000E+000	-4.0789875E-008
1	1	0	1	0	0	0	2.796352875841558E+005	1.9999999E-004	-1.9422518E-001	1.9972591E-004	4.4727128E-007	4.4727128E-007	0	1.242420174043157E-007	43	2.566359433682509E-011	0.000000000000000E+000	8.925213047193187E+000	0.000000000000000E+000	2.796352875841558E+005	0.000000000000000E+000	1.242420174043157E-007	1.242420174043157E-007	0.0000000E+000	0.000000000000000E+000	-3.8791800E-008
1	1	0	1	0	0	0	2.796384677817806E+005	1.9999999E-004	-1.8422081E-001	1.9976032E-004	1.0825462E-006	1.0825462E-006	0	3.007072662679949E-007	43	5.817216467187185E-011	0.000000000000000E+000	1.800714127440407E+001	0.000000000000000E+000	2.796384677817806E+005	0.000000000000000E+000	3.007072662679949E-007	3.007072662679949E-007	0.0000000E+000	0.000000000000000E+000	-3.6800007E-008
1	1	0	1	0	0	0	2.796484679743301E+005	1.9999999E-004	-1.7998615E-001	1.9983301E-004	3.0804408E-006	3.0804408E-006	0	8.556780038898639E-007	43	1.580592105844385E-010	0.000000000000000E+000	4.786841767426646E+001	0.000000000000000E+000	2.796484679743301E+005	0.000000000000000E+000	8.556780038898639E-007	8.556780038898639E-007	0.0000000E+000	0.000000000000000E+000	-3.5967176E-008
1	1	0	1	0	0	0	2.796584681668795E+005	1.9999999E-004	-1.7811893E-001	1.9972591E-004	5.0783165E-006	5.0783165E-006	0	1.410643518451006E-006	43	2.569090738181397E-010	0.000000000000000E+000	7.668916691816182E+001	0.000000000000000E+000	2.796584681668795E+005	0.000000000000000E+000	1.410643518451006E-006	1.410643518451006E-006	0.0000000E+000	0.000000000000000E+000	-3.5574963E-008
1	1	0	1	0	0	0	2.796684683594289E+005	1.9999999E-004	-1.7630897E-001	1.9978710E-004	7.0761016E-006	7.0761016E-006	0	1.965583719365453E-006	43	3.547500116188250E-010	0.000000000000000E+000	1.040152920114473E+002	0.000000000000000E+000	2.796684683594289E+005	0.000000000000000E+000	1.965583719365453E-006	1.965583719365453E-006	0.0000000E+000	0.000000000000000E+000	-3.5224257E-008
1	1	0	1	0	0	0	2.796784685519784E+005	1.9999999E-004	-1.7401026E-001	1.9981388E-004	9.0740141E-006	9.0740141E-006	0	2.520559426303875E-006	43	4.513214797275837E-010	0.000000000000000E+000	1.290239317044558E+002	0.000000000000000E+000	2.796784685519784E+005	0.000000000000000E+000	2.520559426303875E-006	2.520559426303875E-006	0.0000000E+000	0.000000000000000E+000	-3.4769666E-008
1	1	0	1	0	0	0	2.796884687445278E+005	1.9999999E-004	-1.7289145E-001	1.9979093E-004	1.1071918E-005	1.1071918E-005	0	3.075532792475378E-006	43	5.472716313305046E-010	0.000000000000000E+000	1.549669684494818E+002	0.000000000000000E+000	2.796884687445278E+005	0.000000000000000E+000	3.075532792475378E-006	3.075532792475378E-006	0.0000000E+000	0.000000000000000E+000	-3.4542143E-008
1	1	0	1	0	0	0	2.796984689370767E+005	1.9999999E-004	-1.7065385E-001	1.9973738E-004	1.3069854E-005	1.3069854E-005	0	3.630514931163083E-006	43	6.419814698900895E-010	0.000000000000000E+000	1.773757495278282E+002	0.000000000000000E+000	2.796984689370767E+005	0.000000000000000E+000	3.630514931163083E-006	3.630514931163083E-006	0.0000000E+000	0.000000000000000E+000	-3.4085954E-008
1	1	0	1	0	0	0	2.797084691296261E+005	1.9999999E-004	-1.6966867E-001	1.9974503E-004	1.5067746E-005	1.5067746E-005	0	4.185485093559060E-006	43	7.361425217136572E-010	0.000000000000000E+000	2.017918854343984E+002	0.000000000000000E+000	2.797084691296261E+005	0.000000000000000E+000	4.185485093559060E-006	4.185485093559060E-006	0.0000000E+000	0.000000000000000E+000	-3.3890476E-008
1	1	0	1	0	0	0	2.797184693221755E+005	1.9999999E-004	-1.6777091E-001	1.9980622E-004	1.7065628E-005	1.7065628E-005	0	4.740452004579386E-006	43	8.292498238874866E-010	0.000000000000000E+000	2.228834300657610E+002	0.000000000000000E+000	2.797184693221755E+005	0.000000000000000E+000	4.740452004579386E-006	4.740452004579386E-006	0.0000000E+000	0.000000000000000E+000	-3.3521673E-008
1	1	0	1	0	0	0	2.797284695147250E+005	1.9999999E-004	-1.6622825E-001	1.9974884E-004	1.9063538E-005	1.9063538E-005	0	5.295427133374258E-006	43	9.215023681569276E-010	0.000000000000000E+000	2.440596467865147E+002	0.000000000000000E+000	2.797284695147250E+005	0.000000000000000E+000	5.295427133374258E-006	5.295427133374258E-006	0.0000000E+000	0.000000000000000E+000	-3.3203900E-008
1	1	0	1	0	0	0	2.797384697072744E+005	1.9999999E-004	-1.6471997E-001	1.9976031E-004	2.1061405E-005	2.1061405E-005	0	5.850390540095330E-006	43	1.012915923327134E-009	0.000000000000000E+000	2.645292496078999E+002	0.000000000000000E+000	2.797384697072744E+005	0.000000000000000E+000	5.850390540095330E-006	5.850390540095330E-006	0.0000000E+000	0.000000000000000E+000	-3.2904513E-008
1	1	0	1	0	0	0	2.797484698998238E+005	1.9999999E-004	-1.6323839E-001	1.9979857E-004	2.3059221E-005	2.3059221E-005	0	6.405339289694060E-006	43	1.103504864454575E-009	0.000000000000000E+000	2.843306616146107E+002	0.000000000000000E+000	2.797484698998238E+005	0.000000000000000E+000	6.405339289694060E-006	6.405339289694060E-006	0.0000000E+000	0.000000000000000E+000	-3.2614796E-008
1	1	0	1	0	0	0	2.797584700923732E+005	1.9999999E-004	-1.6169192E-001	1.9976415E-004	2.5057201E-005	2.5057201E-005	0	6.960333661639273E-006	43	1.193242969471477E-009	0.000000000000000E+000	3.031853069818033E+002	0.000000000000000E+000	2.797584700923732E+005	0.000000000000000E+000	6.960333661639273E-006	6.960333661639273E-006	0.0000000E+000	0.000000000000000E+000	-3.2300250E-008
1	1	0	1	0	0	0	2.797684702849226E+005	1.9999999E-004	-1.6040128E-001	1.9977945E-004	2.7054986E-005	2.7054986E-005	0	7.515273819917436E-006	43	1.282256083787959E-009	0.000000000000000E+000	3.223244334573883E+002	0.000000000000000E+000	2.797684702849226E+005	0.000000000000000E+000	7.515273819917436E-006	7.515273819917436E-006	0.0000000E+000	0.000000000000000E+000	-3.2044881E-008
1	1	0	1	0	0	0	2.797784704774721E+005	1.9999999E-004	-1.5898845E-001	1.9976415E-004	2.9052775E-005	2.9052775E-005	0	8.070215078684972E-006	43	1.370485332139160E-009	0.000000000000000E+000	3.403958661870572E+002	0.000000000000000E+000	2.797784704774721E+005	0.000000000000000E+000	8.070215078684972E-006	8.070215078684972E-006	0.0000000E+000	0.000000000000000E+000	-3.1760191E-008
1	1	0	1	0	0	0	2.797884706700215E+005	1.9999999E-004	-1.5746488E-001	1.9976798E-004	3.1050571E-005	3.1050571E-005	0	8.625158991083177E-006	43	1.457869506919745E-009	0.000000000000000E+000	3.574227027311775E+002	0.000000000000000E+000	2.797884706700215E+005	0.000000000000000E+000	8.625158991083177E-006	8.625158991083177E-006	0.0000000E+000	0.000000000000000E+000	-3.1456441E-008
1	1	0	1	0	0	0	2.797984708625709E+005	1.9999999E-004	-1.5557474E-001	1.9981005E-004	3.3048382E-005	3.3048382E-005	0	9.180106233646761E-006	43	1.544205279328879E-009	0.000000000000000E+000	3.723187962356599E+002	0.000000000000000E+000	2.797984708625709E+005	0.000000000000000E+000	9.180106233646761E-006	9.180106233646761E-006	0.0000000E+000	0.000000000000000E+000	-3.1085396E-008
1	1	0	1	0	0	0	2.798084710551202E+005	1.9999999E-004	-1.5419629E-001	1.9976032E-004	3.5046265E-005	3.5046265E-005	0	9.735073231555766E-006	43	1.629779132678692E-009	0.000000000000000E+000	3.887890057164067E+002	0.000000000000000E+000	2.798084710551202E+005	0.000000000000000E+000	9.735073231555766E-006	9.735073231555766E-006	0.0000000E+000	0.000000000000000E+000	-3.0802301E-008
1	1	0	1	0	0	0	2.798184712476695E+005	1.9999999E-004	-1.5265363E-001	1.9977563E-004	3.7044134E-005	3.7044134E-005	0	1.029003702417018E-005	43	1.714496372663929E-009	0.000000000000000E+000	4.040380081324778E+002	0.000000000000000E+000	2.798184712476695E+005	0.000000000000000E+000	1.029003702417018E-005	1.029003702417018E-005	0.0000000E+000	0.000000000000000E+000	-3.0496476E-008
1	1	0	1	0	0	0	2.798284714402191E+005	1.9999999E-004	-1.5132099E-001	1.9979091E-004	3.9042043E-005	3.9042043E-005	0	1.084501201828708E-005	43	1.798475740363511E-009	0.000000000000000E+000	4.197283228789382E+002	0.000000000000000E+000	2.798284714402191E+005	0.000000000000000E+000	1.084501201828708E-005	1.084501201828708E-005	0.0000000E+000	0.000000000000000E+000	-3.0232560E-008
1	1	0	1	0	0	0	2.798384716327684E+005	1.9999999E-004	-1.4989288E-001	1.9978710E-004	4.1039908E-005	4.1039908E-005	0	1.139997483447688E-005	43	1.881660716014571E-009	0.000000000000000E+000	4.345352382647117E+002	0.000000000000000E+000	2.798384716327684E+005	0.000000000000000E+000	1.139997483447688E-005	1.139997483447688E-005	0.0000000E+000	0.000000000000000E+000	-2.9946666E-008
1	1	0	1	0	0	0	2.798484718253177E+005	1.9999999E-004	-1.4791110E-001	1.9976796E-004	4.3037748E-005	4.3037748E-005	0	1.195492978351811E-005	43	1.963744713854346E-009	0.000000000000000E+000	4.463232332015734E+002	0.000000000000000E+000	2.798484718253177E+005	0.000000000000000E+000	1.195492978351811E-005	1.195492978351811E-005	0.0000000E+000	0.000000000000000E+000	-2.9547900E-008
1	1	0	1	0	0	0	2.798584720178670E+005	1.9999999E-004	-1.4616607E-001	1.9974503E-004	4.5035529E-005	4.5035529E-005	0	1.250986914342078E-005	43	2.044858019898691E-009	0.000000000000000E+000	4.587395021508096E+002	0.000000000000000E+000	2.798584720178670E+005	0.000000000000000E+000	1.250986914342078E-005	1.250986914342078E-005	0.0000000E+000	0.000000000000000E+000	-2.9195947E-008
1	1	0	1	0	0	0	2.798684722104163E+005	1.9999999E-004	-1.4515799E-001	1.9975650E-004	4.7033242E-005	4.7033242E-005	0	1.306478896190573E-005	43	2.125409066937001E-009	0.000000000000000E+000	4.742190293671899E+002	0.000000000000000E+000	2.798684722104163E+005	0.000000000000000E+000	1.306478896190573E-005	1.306478896190573E-005	0.0000000E+000	0.000000000000000E+000	-2.8996253E-008
1	1	0	1	0	0	0	2.798784724029657E+005	1.9999999E-004	-1.4338242E-001	1.9978710E-004	4.9030939E-005	4.9030939E-005	0	1.361970562068806E-005	43	2.204974357694295E-009	0.000000000000000E+000	4.856664652392777E+002	0.000000000000000E+000	2.798784724029657E+005	0.000000000000000E+000	1.361970562068806E-005	1.361970562068806E-005	0.0000000E+000	0.000000000000000E+000	-2.8645957E-008
1	1	0	1	0	0	0	2.798884725955147E+005	1.9999999E-004	-1.4135481E-001	1.9974119E-004	5.1028579E-005	5.1028579E-005	0	1.417460501596745E-005	43	2.283412058598052E-009	0.000000000000000E+000	4.955020125521042E+002	0.000000000000000E+000	2.798884725955147E+005	0.000000000000000E+000	1.417460501596745E-005	1.417460501596745E-005	0.0000000E+000	0.000000000000000E+000	-2.8234378E-008
1	1	0	1	0	0	0	2.798984727880643E+005	1.9999999E-004	-1.4031620E-001	1.9976796E-004	5.3026139E-005	5.3026139E-005	0	1.472948334534865E-005	43	2.361270479035079E-009	0.000000000000000E+000	5.097578935814005E+002	0.000000000000000E+000	2.798984727880643E+005	0.000000000000000E+000	1.472948334534865E-005	1.472948334534865E-005	0.0000000E+000	0.000000000000000E+000	-2.8030682E-008
1	1	0	1	0	0	0	2.799084729806138E+005	1.9999999E-004	-1.3858643E-001	1.9974884E-004	5.5023796E-005	5.5023796E-005	0	1.528438745873730E-005	43	2.438172660068412E-009	0.000000000000000E+000	5.203098489480465E+002	0.000000000000000E+000	2.799084729806138E+005	0.000000000000000E+000	1.528438745873730E-005	1.528438745873730E-005	0.0000000E+000	0.000000000000000E+000	-2.7682480E-008
1	1	0	1	0	0	0	2.799184731731634E+005	1.9999999E-004	-1.3697505E-001	1.9978329E-004	5.7021593E-005	5.7021593E-005	0	1.583933105153260E-005	43	2.514186086423486E-009	0.000000000000000E+000	5.311084971016514E+002	0.000000000000000E+000	2.799184731731634E+005	0.000000000000000E+000	1.583933105153260E-005	1.583933105153260E-005	0.0000000E+000	0.000000000000000E+000	-2.7365326E-008
1	1	0	1	0	0	0	2.799284733657129E+005	1.9999999E-004	-1.3539802E-001	1.9981769E-004	5.9019443E-005	5.9019443E-005	0	1.639428937505141E-005	43	2.589326342046492E-009	0.000000000000000E+000	5.417590323457019E+002	0.000000000000000E+000	2.799284733657129E+005	0.000000000000000E+000	1.639428937505141E-005	1.639428937505141E-005	0.0000000E+000	0.000000000000000E+000	-2.7054918E-008
1	1	0	1	0	0	0	2.799384735582625E+005	1.9999999E-004	-1.3435557E-001	1.9971443E-004	6.1017276E-005	6.1017276E-005	0	1.694924313475895E-005	43	2.663887473445095E-009	0.000000000000000E+000	5.547890836510370E+002	0.000000000000000E+000	2.799384735582625E+005	0.000000000000000E+000	1.694924313475895E-005	1.694924313475895E-005	0.0000000E+000	0.000000000000000E+000	-2.6832748E-008
1	1	0	1	0	0	0	2.799484737508120E+005	1.9999999E-004	-1.3240817E-001	1.9975269E-004	6.3015126E-005	6.3015126E-005	0	1.750420196592050E-005	43	2.737368557754611E-009	0.000000000000000E+000	5.629857418799187E+002	0.000000000000000E+000	2.799484737508120E+005	0.000000000000000E+000	1.750420196592050E-005	1.750420196592050E-005	0.0000000E+000	0.000000000000000E+000	-2.6448888E-008
1	1	0	1	0	0	0	2.799584739433615E+005	1.9999999E-004	-1.3080442E-001	1.9982152E-004	6.5012886E-005	6.5012886E-005	0	1.805913500437338E-005	43	2.809956251720531E-009	0.000000000000000E+000	5.726292788642699E+002	0.000000000000000E+000	2.799584739433615E+005	0.000000000000000E+000	1.805913500437338E-005	1.805913500437338E-005	0.0000000E+000	0.000000000000000E+000	-2.6137537E-008
1	1	0	1	0	0	0	2.799684741359106E+005	1.9999999E-004	-1.2934195E-001	1.9978710E-004	6.7010740E-005	6.7010740E-005	0	1.861409486419123E-005	43	2.881735839415238E-009	0.000000000000000E+000	5.827200222315042E+002	0.000000000000000E+000	2.799684741359106E+005	0.000000000000000E+000	1.861409486419123E-005	1.861409486419123E-005	0.0000000E+000	0.000000000000000E+000	-2.5840853E-008
1	1	0	1	0	0	0	2.799784743284602E+005	1.9999999E-004	-1.2758546E-001	1.9978329E-004	6.9008573E-005	6.9008573E-005	0	1.916904701645783E-005	43	2.952539662695634E-009	0.000000000000000E+000	5.910648756864209E+002	0.000000000000000E+000	2.799784743284602E+005	0.000000000000000E+000	1.916904701645783E-005	1.916904701645783E-005	0.0000000E+000	0.000000000000000E+000	-2.5489442E-008
1	1	0	1	0	0	0	2.799884745210097E+005	1.9999999E-004	-1.2622991E-001	1.9980239E-004	7.1006347E-005	7.1006347E-005	0	1.972398503055734E-005	43	3.022589439404521E-009	0.000000000000000E+000	6.011959213160917E+002	0.000000000000000E+000	2.799884745210097E+005	0.000000000000000E+000	1.972398503055734E-005	1.972398503055734E-005	0.0000000E+000	0.000000000000000E+000	-2.5221039E-008
1	1	0	1	0	0	0	2.799984747135593E+005	1.9999999E-004	-1.2473308E-001	1.9977563E-004	7.3004157E-005	7.3004157E-005	0	2.027893164155002E-005	43	3.091809636931681E-009	0.000000000000000E+000	6.103754098138804E+002	0.000000000000000E+000	2.799984747135593E+005	0.000000000000000E+000	2.027893164155002E-005	2.027893164155002E-005	0.0000000E+000	0.000000000000000E+000	-2.4918629E-008
1	1	0	1	0	0	0	2.800084749061088E+005	1.9999999E-004	-1.2327824E-001	1.9981005E-004	7.5001990E-005	7.5001990E-005	0	2.083388627009259E-005	43	3.160223465641357E-009	0.000000000000000E+000	6.195430786841378E+002	0.000000000000000E+000	2.800084749061088E+005	0.000000000000000E+000	2.083388627009259E-005	2.083388627009259E-005	0.0000000E+000	0.000000000000000E+000	-2.4632230E-008
1	1	0	1	0	0	0	2.800184750986584E+005	1.9999999E-004	-1.2162103E-001	1.9977179E-004	7.6999779E-005	7.6999779E-005	0	2.138882773592822E-005	43	3.227716016967946E-009	0.000000000000000E+000	6.274561885264686E+002	0.000000000000000E+000	2.800184750986584E+005	0.000000000000000E+000	2.138882773592822E-005	2.138882773592822E-005	0.0000000E+000	0.000000000000000E+000	-2.4296451E-008
1	1	0	1	0	0	0	2.800284752912079E+005	1.9999999E-004	-1.2021201E-001	1.9977181E-004	7.8997633E-005	7.8997633E-005	0	2.194378769385670E-005	43	3.294428869556790E-009	0.000000000000000E+000	6.364289753069500E+002	0.000000000000000E+000	2.800284752912079E+005	0.000000000000000E+000	2.194378769385670E-005	2.194378769385670E-005	0.0000000E+000	0.000000000000000E+000	-2.4014971E-008
1	1	0	1	0	0	0	2.800384754837574E+005	1.9999999E-004	-1.1823024E-001	1.9977563E-004	8.0995553E-005	8.0995553E-005	0	2.249876397402416E-005	43	3.360043847554390E-009	0.000000000000000E+000	6.422704460136946E+002	0.000000000000000E+000	2.800384754837574E+005	0.000000000000000E+000	2.249876397402416E-005	2.249876397402416E-005	0.0000000E+000	0.000000000000000E+000	-2.3619521E-008
1	1	0	1	0	0	0	2.800484756763070E+005	1.9999999E-004	-1.1664557E-001	1.9978710E-004	8.2993465E-005	8.2993465E-005	0	2.305373966980207E-005	43	3.424779306460624E-009	0.000000000000000E+000	6.499461286012915E+002	0.000000000000000E+000	2.800484756763070E+005	0.000000000000000E+000	2.305373966980207E-005	2.305373966980207E-005	0.0000000E+000	0.000000000000000E+000	-2.3304281E-008
1	1	0	1	0	0	0	2.800584758688565E+005	1.9999999E-004	-1.1549240E-001	1.9977563E-004	8.4991429E-005	8.4991429E-005	0	2.360872963229142E-005	43	3.488876431150908E-009	0.000000000000000E+000	6.596357173558603E+002	0.000000000000000E+000	2.800584758688565E+005	0.000000000000000E+000	2.360872963229142E-005	2.360872963229142E-005	0.0000000E+000	0.000000000000000E+000	-2.3072568E-008
1	1	0	1	0	0	0	2.800684760614061E+005	1.9999999E-004	-1.1414067E-001	1.9972972E-004	8.6989312E-005	8.6989312E-005	0	2.416369693169913E-005	43	3.552220768880299E-009	0.000000000000000E+000	6.681322825034445E+002	0.000000000000000E+000	2.800684760614061E+005	0.000000000000000E+000	2.416369693169913E-005	2.416369693169913E-005	0.0000000E+000	0.000000000000000E+000	-2.2797284E-008
1	1	0	1	0	0	0	2.800784762539556E+005	1.9999999E-004	-1.1209397E-001	1.9976798E-004	8.8987159E-005	8.8987159E-005	0	2.471865545576758E-005	43	3.614428273128119E-009	0.000000000000000E+000	6.728990725936538E+002	0.000000000000000E+000	2.800784762539556E+005	0.000000000000000E+000	2.471865545576758E-005	2.471865545576758E-005	0.0000000E+000	0.000000000000000E+000	-2.2392786E-008
1	1	0	1	0	0	0	2.800884764465052E+005	1.9999999E-004	-1.1095607E-001	1.9977563E-004	9.0985028E-005	9.0985028E-005	0	2.527361875136780E-005	43	3.676004820960123E-009	0.000000000000000E+000	6.821370108472487E+002	0.000000000000000E+000	2.800884764465052E+005	0.000000000000000E+000	2.527361875136780E-005	2.527361875136780E-005	0.0000000E+000	0.000000000000000E+000	-2.2166320E-008
1	1	0	1	0	0	0	2.800984766390547E+005	1.9999999E-004	-1.0939050E-001	1.9977563E-004	9.2982889E-005	9.2982889E-005	0	2.582858055453006E-005	43	3.736712372674080E-009	0.000000000000000E+000	6.890280823181035E+002	0.000000000000000E+000	2.800984766390547E+005	0.000000000000000E+000	2.582858055453006E-005	2.582858055453006E-005	0.0000000E+000	0.000000000000000E+000	-2.1853557E-008
1	1	0	1	0	0	0	2.801084768316038E+005	1.9999999E-004	-1.0773329E-001	1.9974120E-004	9.4980744E-005	9.4980744E-005	0	2.638353945114452E-005	43	3.796499922845069E-009	0.000000000000000E+000	6.952941908280537E+002	0.000000000000000E+000	2.801084768316038E+005	0.000000000000000E+000	2.638353945114452E-005	2.638353945114452E-005	0.0000000E+000	0.000000000000000E+000	-2.1518778E-008
1	1	0	1	0	0	0	2.801184770241529E+005	1.9999999E-004	-1.0605317E-001	1.9980239E-004	9.6978583E-005	9.6978583E-005	0	2.693849477203568E-005	43	3.855354695799609E-009	0.000000000000000E+000	7.012938256244920E+002	0.000000000000000E+000	2.801184770241529E+005	0.000000000000000E+000	2.693849477203568E-005	2.693849477203568E-005	0.0000000E+000	0.000000000000000E+000	-2.1189678E-008
1	1	0	1	0	0	0	2.801284772167020E+005	1.9999999E-004	-1.0485800E-001	1.9974886E-004	9.8976278E-005	9.8976278E-005	0	2.749341075491551E-005	43	3.913542073771661E-009	0.000000000000000E+000	7.096070143036990E+002	0.000000000000000E+000	2.801284772167020E+005	0.000000000000000E+000	2.749341075491551E-005	2.749341075491551E-005	0.0000000E+000	0.000000000000000E+000	-2.0945265E-008
1	1	0	1	0	0	0	2.801384774092510E+005	1.9999999E-004	-1.0357881E-001	1.9976032E-004	1.0097403E-004	1.0097403E-004	0	2.804834230193208E-005	43	3.971021224915459E-009	0.000000000000000E+000	7.173510112702171E+002	0.000000000000000E+000	2.801384774092510E+005	0.000000000000000E+000	2.804834230193208E-005	2.804834230193208E-005	0.0000000E+000	0.000000000000000E+000	-2.0690937E-008
1	1	0	1	0	0	0	2.801484776018001E+005	1.9999999E-004	-1.0182614E-001	1.9976798E-004	1.0297183E-004	1.0297183E-004	0	2.860328525520789E-005	43	4.027528923098709E-009	0.000000000000000E+000	7.225471378348423E+002	0.000000000000000E+000	2.801484776018001E+005	0.000000000000000E+000	2.860328525520789E-005	2.860328525520789E-005	0.0000000E+000	0.000000000000000E+000	-2.0341602E-008
1	1	0	1	0	0	0	2.801584777943492E+005	1.9999999E-004	-1.0014984E-001	1.9977563E-004	1.0496964E-004	1.0496964E-004	0	2.915823482174144E-005	43	4.083107033459765E-009	0.000000000000000E+000	7.280025512228053E+002	0.000000000000000E+000	2.801584777943492E+005	0.000000000000000E+000	2.915823482174144E-005	2.915823482174144E-005	0.0000000E+000	0.000000000000000E+000	-2.0007498E-008
1	1	0	1	0	0	0	2.801684779868983E+005	1.9999999E-004	-9.8427713E-002	1.9978329E-004	1.0696751E-004	1.0696751E-004	0	2.971319839965286E-005	43	4.137730829186003E-009	0.000000000000000E+000	7.331026289447124E+002	0.000000000000000E+000	2.801684779868983E+005	0.000000000000000E+000	2.971319839965286E-005	2.971319839965286E-005	0.0000000E+000	0.000000000000000E+000	-1.9664212E-008
1	1	0	1	0	0	0	2.801784781794474E+005	1.9999999E-004	-9.7255446E-002	1.9976032E-004	1.0896534E-004	1.0896534E-004	0	3.026814934643072E-005	43	4.191702831032323E-009	0.000000000000000E+000	7.408427299413012E+002	0.000000000000000E+000	2.801784781794474E+005	0.000000000000000E+000	3.026814934643072E-005	3.026814934643072E-005	0.0000000E+000	0.000000000000000E+000	-1.9427780E-008
1	1	0	1	0	0	0	2.801884783719964E+005	1.9999999E-004	-9.6239738E-002	1.9982152E-004	1.1096316E-004	1.1096316E-004	0	3.082310154010641E-005	43	4.245111284846503E-009	0.000000000000000E+000	7.492515631797260E+002	0.000000000000000E+000	2.801884783719964E+005	0.000000000000000E+000	3.082310154010641E-005	3.082310154010641E-005	0.0000000E+000	0.000000000000000E+000	-1.9230770E-008
1	1	0	1	0	0	0	2.801984785645455E+005	1.9999999E-004	-9.4792545E-002	1.9978710E-004	1.1296105E-004	1.1296105E-004	0	3.137806885784630E-005	43	4.297718049199076E-009	0.000000000000000E+000	7.553605657665406E+002	0.000000000000000E+000	2.801984785645455E+005	0.000000000000000E+000	3.137806885784630E-005	3.137806885784630E-005	0.0000000E+000	0.000000000000000E+000	-1.8938328E-008
1	1	0	1	0	0	0	2.802084787570946E+005	1.9999999E-004	-9.3288071E-002	1.9979475E-004	1.1495899E-004	1.1495899E-004	0	3.193305285915732E-005	43	4.349491436368967E-009	0.000000000000000E+000	7.610641492504154E+002	0.000000000000000E+000	2.802084787570946E+005	0.000000000000000E+000	3.193305285915732E-005	3.193305285915732E-005	0.0000000E+000	0.000000000000000E+000	-1.8638467E-008
1	1	0	1	0	0	0	2.802184789496437E+005	1.9999999E-004	-9.2081435E-002	1.9979475E-004	1.1695694E-004	1.1695694E-004	0	3.248804071110802E-005	43	4.400595514197884E-009	0.000000000000000E+000	7.681549810907837E+002	0.000000000000000E+000	2.802184789496437E+005	0.000000000000000E+000	3.248804071110802E-005	3.248804071110802E-005	0.0000000E+000	0.000000000000000E+000	-1.8397389E-008
1	1	0	1	0	0	0	2.802284791421928E+005	1.9999999E-004	-9.0515867E-002	1.9974503E-004	1.1895486E-004	1.1895486E-004	0	3.304301836101169E-005	43	4.450829797275526E-009	0.000000000000000E+000	7.733253211339083E+002	0.000000000000000E+000	2.802284791421928E+005	0.000000000000000E+000	3.304301836101169E-005	3.304301836101169E-005	0.0000000E+000	0.000000000000000E+000	-1.8080094E-008
1	1	0	1	0	0	0	2.802384793347418E+005	1.9999999E-004	-8.9194685E-002	1.9977563E-004	1.2095263E-004	1.2095263E-004	0	3.359795329121436E-005	43	4.500327043692934E-009	0.000000000000000E+000	7.796166650759071E+002	0.000000000000000E+000	2.802384793347418E+005	0.000000000000000E+000	3.359795329121436E-005	3.359795329121436E-005	0.0000000E+000	0.000000000000000E+000	-1.7818925E-008
1	1	0	1	0	0	0	2.802484795272909E+005	1.9999999E-004	-8.7365642E-002	1.9979091E-004	1.2295038E-004	1.2295038E-004	0	3.415288544518403E-005	43	4.548809047696363E-009	0.000000000000000E+000	7.832593563607638E+002	0.000000000000000E+000	2.802484795272909E+005	0.000000000000000E+000	3.415288544518403E-005	3.415288544518403E-005	0.0000000E+000	0.000000000000000E+000	-1.7454861E-008
1	1	0	1	0	0	0	2.802584797198400E+005	1.9999999E-004	-8.6540855E-002	1.9976415E-004	1.2494830E-004	1.2494830E-004	0	3.470786128196353E-005	43	4.596837131374953E-009	0.000000000000000E+000	7.918266438236335E+002	0.000000000000000E+000	2.802584797198400E+005	0.000000000000000E+000	3.470786128196353E-005	3.470786128196353E-005	0.0000000E+000	0.000000000000000E+000	-1.7287761E-008
1	1	0	1	0	0	0	2.802684799123891E+005	1.9999999E-004	-8.5464045E-002	1.9979858E-004	1.2694612E-004	1.2694612E-004	0	3.526281203268587E-005	43	4.644265467532441E-009	0.000000000000000E+000	7.990346658489889E+002	0.000000000000000E+000	2.802684799123891E+005	0.000000000000000E+000	3.526281203268587E-005	3.526281203268587E-005	0.0000000E+000	0.000000000000000E+000	-1.7075594E-008
1	1	0	1	0	0	0	2.802784801049381E+005	1.9999999E-004	-8.4528528E-002	1.9979093E-004	1.2894400E-004	1.2894400E-004	0	3.581777664126498E-005	43	4.691175809073136E-009	0.000000000000000E+000	8.068586868995102E+002	0.000000000000000E+000	2.802784801049381E+005	0.000000000000000E+000	3.581777664126498E-005	3.581777664126498E-005	0.0000000E+000	0.000000000000000E+000	-1.6888032E-008
1	1	0	1	0	0	0	2.802884802974872E+005	1.9999999E-004	-8.2615480E-002	1.9975651E-004	1.3094187E-004	1.3094187E-004	0	3.637274248276481E-005	43	4.737024578356199E-009	0.000000000000000E+000	8.096679569560672E+002	0.000000000000000E+000	2.802884802974872E+005	0.000000000000000E+000	3.637274248276481E-005	3.637274248276481E-005	0.0000000E+000	0.000000000000000E+000	-1.6502980E-008
1	1	0	1	0	0	0	2.802984804900363E+005	1.9999999E-004	-8.1431754E-002	1.9981005E-004	1.3293984E-004	1.3293984E-004	0	3.692773289689467E-005	43	4.782218421195034E-009	0.000000000000000E+000	8.160491981052523E+002	0.000000000000000E+000	2.802984804900363E+005	0.000000000000000E+000	3.692773289689467E-005	3.692773289689467E-005	0.0000000E+000	0.000000000000000E+000	-1.6270883E-008
1	1	0	1	0	0	0	2.803084806825854E+005	1.9999999E-004	-8.0561146E-002	1.9977181E-004	1.3493777E-004	1.3493777E-004	0	3.748271483405450E-005	43	4.826928402139682E-009	0.000000000000000E+000	8.239103021841554E+002	0.000000000000000E+000	2.803084806825854E+005	0.000000000000000E+000	3.748271483405450E-005	3.748271483405450E-005	0.0000000E+000	0.000000000000000E+000	-1.6093846E-008
1	1	0	1	0	0	0	2.803184808751345E+005	1.9999999E-004	-7.8945942E-002	1.9981005E-004	1.3693562E-004	1.3693562E-004	0	3.803767174675381E-005	43	4.870739998505935E-009	0.000000000000000E+000	8.279435445898712E+002	0.000000000000000E+000	2.803184808751345E+005	0.000000000000000E+000	3.803767174675381E-005	3.803767174675381E-005	0.0000000E+000	0.000000000000000E+000	-1.5774193E-008
1	1	0	1	0	0	0	2.803284810676835E+005	1.9999999E-004	-7.7850044E-002	1.9975651E-004	1.3893339E-004	1.3893339E-004	0	3.859261034877980E-005	43	4.913941992965347E-009	0.000000000000000E+000	8.344931359456361E+002	0.000000000000000E+000	2.803284810676835E+005	0.000000000000000E+000	3.859261034877980E-005	3.859261034877980E-005	0.0000000E+000	0.000000000000000E+000	-1.5551054E-008
1	1	0	1	0	0	0	2.803384812602326E+005	1.9999999E-004	-7.6448672E-002	1.9976798E-004	1.4093125E-004	1.4093125E-004	0	3.914756913071142E-005	43	4.956367854592243E-009	0.000000000000000E+000	8.394273853569742E+002	0.000000000000000E+000	2.803384812602326E+005	0.000000000000000E+000	3.914756913071142E-005	3.914756913071142E-005	0.0000000E+000	0.000000000000000E+000	-1.5271997E-008
1	1	0	1	0	0	0	2.803484814527817E+005	1.9999999E-004	-7.5108394E-002	1.9979091E-004	1.4292912E-004	1.4292912E-004	0	3.970253343654198E-005	43	4.998050332345349E-009	0.000000000000000E+000	8.445849345560614E+002	0.000000000000000E+000	2.803484814527817E+005	0.000000000000000E+000	3.970253343654198E-005	3.970253343654198E-005	0.0000000E+000	0.000000000000000E+000	-1.5005975E-008
1	1	0	1	0	0	0	2.803584816453308E+005	1.9999999E-004	-7.3638290E-002	1.9975650E-004	1.4492703E-004	1.4492703E-004	0	4.025750838453172E-005	43	5.038917738600753E-009	0.000000000000000E+000	8.490154074201653E+002	0.000000000000000E+000	2.803584816453308E+005	0.000000000000000E+000	4.025750838453172E-005	4.025750838453172E-005	0.0000000E+000	0.000000000000000E+000	-1.4709727E-008
1	1	0	1	0	0	0	2.803684818378799E+005	1.9999999E-004	-7.2630219E-002	1.9979093E-004	1.4692475E-004	1.4692475E-004	0	4.081243202152412E-005	43	5.079221963973413E-009	0.000000000000000E+000	8.556653576038676E+002	0.000000000000000E+000	2.803684818378799E+005	0.000000000000000E+000	4.081243202152412E-005	4.081243202152412E-005	0.0000000E+000	0.000000000000000E+000	-1.4510859E-008
1	1	0	1	0	0	0	2.803784820304289E+005	1.9999999E-004	-7.2065085E-002	1.9975650E-004	1.4892248E-004	1.4892248E-004	0	4.136735686503279E-005	43	5.119212670085286E-009	0.000000000000000E+000	8.644547058867340E+002	0.000000000000000E+000	2.803784820304289E+005	0.000000000000000E+000	4.136735686503279E-005	4.136735686503279E-005	0.0000000E+000	0.000000000000000E+000	-1.4395469E-008
1	1	0	1	0	0	0	2.803884822229780E+005	1.9999999E-004	-7.0820265E-002	1.9977563E-004	1.5092033E-004	1.5092033E-004	0	4.192231336234524E-005	43	5.158514836021082E-009	0.000000000000000E+000	8.697668065022067E+002	0.000000000000000E+000	2.803884822229780E+005	0.000000000000000E+000	4.192231336234524E-005	4.192231336234524E-005	0.0000000E+000	0.000000000000000E+000	-1.4148164E-008
1	1	0	1	0	0	0	2.803984824155271E+005	1.9999999E-004	-7.0018396E-002	1.9978710E-004	1.5291815E-004	1.5291815E-004	0	4.247726318997735E-005	43	5.197371532691111E-009	0.000000000000000E+000	8.772265756472564E+002	0.000000000000000E+000	2.803984824155271E+005	0.000000000000000E+000	4.247726318997735E-005	4.247726318997735E-005	0.0000000E+000	0.000000000000000E+000	-1.3988772E-008
1	1	0	1	0	0	0	2.804084826080762E+005	1.9999999E-004	-6.8659022E-002	1.9972208E-004	1.5491588E-004	1.5491588E-004	0	4.303218915792139E-005	43	5.235472207182518E-009	0.000000000000000E+000	8.818102384903561E+002	0.000000000000000E+000	2.804084826080762E+005	0.000000000000000E+000	4.303218915792139E-005	4.303218915792139E-005	0.0000000E+000	0.000000000000000E+000	-1.3712723E-008
1	1	0	1	0	0	0	2.804184828006253E+005	1.9999999E-004	-6.7387469E-002	1.9978327E-004	1.5691368E-004	1.5691368E-004	0	4.358713505616207E-005	43	5.272868606759527E-009	0.000000000000000E+000	8.867638323716196E+002	0.000000000000000E+000	2.804184828006253E+005	0.000000000000000E+000	4.358713505616207E-005	4.358713505616207E-005	0.0000000E+000	0.000000000000000E+000	-1.3462889E-008
1	1	0	1	0	0	0	2.804284829931743E+005	1.9999999E-004	-6.6283941E-002	1.9977179E-004	1.5891144E-004	1.5891144E-004	0	4.414206482544796E-005	43	5.309651538995249E-009	0.000000000000000E+000	8.924877661799591E+002	0.000000000000000E+000	2.804284829931743E+005	0.000000000000000E+000	4.414206482544796E-005	4.414206482544796E-005	0.0000000E+000	0.000000000000000E+000	-1.3241662E-008
1	1	0	1	0	0	0	2.804384831857234E+005	1.9999999E-004	-6.5516427E-002	1.9976415E-004	1.6090923E-004	1.6090923E-004	0	4.469700665371440E-005	43	5.346009344864520E-009	0.000000000000000E+000	8.998291099094185E+002	0.000000000000000E+000	2.804384831857234E+005	0.000000000000000E+000	4.469700665371440E-005	4.469700665371440E-005	0.0000000E+000	0.000000000000000E+000	-1.3087834E-008
1	1	0	1	0	0	0	2.804484833782725E+005	1.9999999E-004	-6.4435802E-002	1.9977179E-004	1.6290690E-004	1.6290690E-004	0	4.525191716264069E-005	43	5.381765448767441E-009	0.000000000000000E+000	9.055282684410507E+002	0.000000000000000E+000	2.804484833782725E+005	0.000000000000000E+000	4.525191716264069E-005	4.525191716264069E-005	0.0000000E+000	0.000000000000000E+000	-1.2872456E-008
1	1	0	1	0	0	0	2.804584835708216E+005	1.9999999E-004	-6.3374273E-002	1.9977563E-004	1.6490468E-004	1.6490468E-004	0	4.580685400796998E-005	43	5.416934168166904E-009	0.000000000000000E+000	9.112560783010566E+002	0.000000000000000E+000	2.804584835708216E+005	0.000000000000000E+000	4.580685400796998E-005	4.580685400796998E-005	0.0000000E+000	0.000000000000000E+000	-1.2660635E-008
1	1	0	1	0	0	0	2.804684837633707E+005	1.9999999E-004	-6.2331833E-002	1.9979857E-004	1.6690251E-004	1.6690251E-004	0	4.636180651864864E-005	43	5.451525375355127E-009	0.000000000000000E+000	9.170136306675379E+002	0.000000000000000E+000	2.804684837633707E+005	0.000000000000000E+000	4.636180651864864E-005	4.636180651864864E-005	0.0000000E+000	0.000000000000000E+000	-1.2453811E-008
1	1	0	1	0	0	0	2.804784839559197E+005	1.9999999E-004	-6.1006829E-002	1.9976417E-004	1.6890033E-004	1.6890033E-004	0	4.691675613429733E-005	43	5.485381091739742E-009	0.000000000000000E+000	9.212833000862876E+002	0.000000000000000E+000	2.804784839559197E+005	0.000000000000000E+000	4.691675613429733E-005	4.691675613429733E-005	0.0000000E+000	0.000000000000000E+000	-1.2186979E-008
1	1	0	1	0	0	0	2.804884841484688E+005	1.9999999E-004	-6.0082763E-002	1.9975650E-004	1.7089816E-004	1.7089816E-004	0	4.747171013933076E-005	43	5.518724261940615E-009	0.000000000000000E+000	9.275056772304347E+002	0.000000000000000E+000	2.804884841484688E+005	0.000000000000000E+000	4.747171013933076E-005	4.747171013933076E-005	0.0000000E+000	0.000000000000000E+000	-1.2001922E-008
1	1	0	1	0	0	0	2.804984843410179E+005	1.9999999E-004	-5.9051782E-002	1.9974503E-004	1.7289595E-004	1.7289595E-004	0	4.802665148831369E-005	43	5.551494537444039E-009	0.000000000000000E+000	9.331269551687727E+002	0.000000000000000E+000	2.804984843410179E+005	0.000000000000000E+000	4.802665148831369E-005	4.802665148831369E-005	0.0000000E+000	0.000000000000000E+000	-1.1795300E-008
1	1	0	1	0	0	0	2.805084845335670E+005	1.9999999E-004	-5.8047522E-002	1.9974120E-004	1.7489378E-004	1.7489378E-004	0	4.858160530567996E-005	43	5.583708231288568E-009	0.000000000000000E+000	9.388208898498372E+002	0.000000000000000E+000	2.805084845335670E+005	0.000000000000000E+000	4.858160530567996E-005	4.858160530567996E-005	0.0000000E+000	0.000000000000000E+000	-1.1594482E-008
1	1	0	1	0	0	0	2.805184847261161E+005	1.9999999E-004	-5.6775976E-002	1.9975650E-004	1.7689170E-004	1.7689170E-004	0	4.913658207983725E-005	43	5.615217579283371E-009	0.000000000000000E+000	9.431083290811727E+002	0.000000000000000E+000	2.805184847261161E+005	0.000000000000000E+000	4.913658207983725E-005	4.913658207983725E-005	0.0000000E+000	0.000000000000000E+000	-1.1341371E-008
1	1	0	1	0	0	0	2.805284849186651E+005	1.9999999E-004	-5.5683900E-002	1.9981005E-004	1.7888955E-004	1.7888955E-004	0	4.969153913405716E-005	43	5.646119752212177E-009	0.000000000000000E+000	9.482388670580631E+002	0.000000000000000E+000	2.805284849186651E+005	0.000000000000000E+000	4.969153913405716E-005	4.969153913405716E-005	0.0000000E+000	0.000000000000000E+000	-1.1126203E-008
1	1	0	1	0	0	0	2.805384851112142E+005	1.9999999E-004	-5.5034764E-002	1.9979091E-004	1.8088747E-004	1.8088747E-004	0	5.024651860548875E-005	43	5.676662916508885E-009	0.000000000000000E+000	9.555414268606470E+002	0.000000000000000E+000	2.805384851112142E+005	0.000000000000000E+000	5.024651860548875E-005	5.024651860548875E-005	0.0000000E+000	0.000000000000000E+000	-1.0995445E-008
1	1	0	1	0	0	0	2.805484853037633E+005	1.9999999E-004	-5.3801402E-002	1.9986360E-004	1.8288543E-004	1.8288543E-004	0	5.080150813394862E-005	43	5.706522131484873E-009	0.000000000000000E+000	9.598420456221530E+002	0.000000000000000E+000	2.805484853037633E+005	0.000000000000000E+000	5.080150813394862E-005	5.080150813394862E-005	0.0000000E+000	0.000000000000000E+000	-1.0752942E-008
1	1	0	1	0	0	0	2.805584854963124E+005	1.9999999E-004	-5.3282090E-002	1.9977945E-004	1.8488331E-004	1.8488331E-004	0	5.135647394080519E-005	43	5.736091869292683E-009	0.000000000000000E+000	9.676901280722008E+002	0.000000000000000E+000	2.805584854963124E+005	0.000000000000000E+000	5.135647394080519E-005	5.135647394080519E-005	0.0000000E+000	0.000000000000000E+000	-1.0644666E-008
1	1	0	1	0	0	0	2.805684856888615E+005	1.9999999E-004	-5.2277837E-002	1.9979475E-004	1.8688111E-004	1.8688111E-004	0	5.191141900695119E-005	43	5.765103196976112E-009	0.000000000000000E+000	9.730321203758384E+002	0.000000000000000E+000	2.805684856888615E+005	0.000000000000000E+000	5.191141900695119E-005	5.191141900695119E-005	0.0000000E+000	0.000000000000000E+000	-1.0444838E-008
1	1	0	1	0	0	0	2.805784858814105E+005	1.9999999E-004	-5.1285036E-002	1.9979093E-004	1.8887898E-004	1.8887898E-004	0	5.246638308023729E-005	43	5.793564549402363E-009	0.000000000000000E+000	9.783770375088043E+002	0.000000000000000E+000	2.805784858814105E+005	0.000000000000000E+000	5.246638308023729E-005	5.246638308023729E-005	0.0000000E+000	0.000000000000000E+000	-1.0246285E-008
1	1	0	1	0	0	0	2.805884860739596E+005	1.9999999E-004	-5.0907008E-002	1.9977563E-004	1.9087692E-004	1.9087692E-004	0	5.302136442108309E-005	43	5.821816989154835E-009	0.000000000000000E+000	9.867937925173845E+002	0.000000000000000E+000	2.805884860739596E+005	0.000000000000000E+000	5.302136442108309E-005	5.302136442108309E-005	0.0000000E+000	0.000000000000000E+000	-1.0169980E-008
1	1	0	1	0	0	0	2.805984862665087E+005	1.9999999E-004	-4.9876027E-002	1.9982152E-004	1.9287481E-004	1.9287481E-004	0	5.357633699667814E-005	43	5.849496816213594E-009	0.000000000000000E+000	9.918360790689509E+002	0.000000000000000E+000	2.805984862665087E+005	0.000000000000000E+000	5.357633699667814E-005	5.357633699667814E-005	0.0000000E+000	0.000000000000000E+000	-9.9663033E-009
1	1	0	1	0	0	0	2.806084864590578E+005	1.9999999E-004	-4.9192522E-002	1.9977945E-004	1.9487273E-004	1.9487273E-004	0	5.413131303919908E-005	43	5.876797487240010E-009	0.000000000000000E+000	9.986002104609452E+002	0.000000000000000E+000	2.806084864590578E+005	0.000000000000000E+000	5.413131303919908E-005	5.413131303919908E-005	0.0000000E+000	0.000000000000000E+000	-9.8276551E-009
1	1	0	1	0	0	0	2.806184866516069E+005	1.9999999E-004	-4.8195902E-002	1.9982917E-004	1.9687052E-004	1.9687052E-004	0	5.468625537610832E-005	43	5.903543433868601E-009	0.000000000000000E+000	1.003711636890400E+003	0.000000000000000E+000	2.806184866516069E+005	0.000000000000000E+000	5.468625537610832E-005	5.468625537610832E-005	0.0000000E+000	0.000000000000000E+000	-9.6309467E-009
1	1	0	1	0	0	0	2.806284868441559E+005	1.9999999E-004	-4.7222197E-002	1.9979857E-004	1.9886828E-004	1.9886828E-004	0	5.524118899496352E-005	43	5.929748618571079E-009	0.000000000000000E+000	1.008888509553663E+003	0.000000000000000E+000	2.806284868441559E+005	0.000000000000000E+000	5.524118899496352E-005	5.524118899496352E-005	0.0000000E+000	0.000000000000000E+000	-9.4349275E-009
1	1	0	1	0	0	0	2.806384870367050E+005	1.9999999E-004	-4.6821259E-002	1.9975650E-004	2.0086596E-004	2.0086596E-004	0	5.579610164295991E-005	43	5.955730327364293E-009	0.000000000000000E+000	1.016954523704840E+003	0.000000000000000E+000	2.806384870367050E+005	0.000000000000000E+000	5.579610164295991E-005	5.579610164295991E-005	0.0000000E+000	0.000000000000000E+000	-9.3528509E-009
1	1	0	1	0	0	0	2.806484872292541E+005	1.9999999E-004	-4.5706268E-002	1.9978329E-004	2.0286371E-004	2.0286371E-004	0	5.635102945597282E-005	43	5.981094006928461E-009	0.000000000000000E+000	1.021303552082284E+003	0.000000000000000E+000	2.806484872292541E+005	0.000000000000000E+000	5.635102945597282E-005	5.635102945597282E-005	0.0000000E+000	0.000000000000000E+000	-9.1313490E-009
1	1	0	1	0	0	0	2.806584874218032E+005	1.9999999E-004	-4.5133498E-002	1.9972972E-004	2.0486153E-004	2.0486153E-004	0	5.690598088679205E-005	43	6.006140905980580E-009	0.000000000000000E+000	1.028396009222184E+003	0.000000000000000E+000	2.806584874218032E+005	0.000000000000000E+000	5.690598088679205E-005	5.690598088679205E-005	0.0000000E+000	0.000000000000000E+000	-9.0145011E-009
1	1	0	1	0	0	0	2.806684876143523E+005	1.9999999E-004	-4.4178884E-002	1.9981388E-004	2.0685945E-004	2.0685945E-004	0	5.746095880286157E-005	43	6.030659211221581E-009	0.000000000000000E+000	1.033472960878776E+003	0.000000000000000E+000	2.806684876143523E+005	0.000000000000000E+000	5.746095880286157E-005	5.746095880286157E-005	0.0000000E+000	0.000000000000000E+000	-8.8275538E-009
1	1	0	1	0	0	0	2.806784878069013E+005	1.9999999E-004	-4.3919232E-002	1.9977179E-004	2.0885740E-004	2.0885740E-004	0	5.801594198760076E-005	43	6.055033646325398E-009	0.000000000000000E+000	1.042102850737291E+003	0.000000000000000E+000	2.806784878069013E+005	0.000000000000000E+000	5.801594198760076E-005	5.801594198760076E-005	0.0000000E+000	0.000000000000000E+000	-8.7738234E-009
1	1	0	1	0	0	0	2.806884879994504E+005	1.9999999E-004	-4.2632408E-002	1.9979091E-004	2.1085533E-004	2.1085533E-004	0	5.857092389211094E-005	43	6.078693861555349E-009	0.000000000000000E+000	1.045359752028115E+003	0.000000000000000E+000	2.806884879994504E+005	0.000000000000000E+000	5.857092389211094E-005	5.857092389211094E-005	0.0000000E+000	0.000000000000000E+000	-8.5175680E-009
1	1	0	1	0	0	0	2.806984881919995E+005	1.9999999E-004	-4.1685432E-002	1.9982536E-004	2.1285338E-004	2.1285338E-004	0	5.912593776119158E-005	43	6.101829854562562E-009	0.000000000000000E+000	1.050334321404744E+003	0.000000000000000E+000	2.806984881919995E+005	0.000000000000000E+000	5.912593776119158E-005	5.912593776119158E-005	0.0000000E+000	0.000000000000000E+000	-8.3298062E-009
1	1	0	1	0	0	0	2.807084883845486E+005	1.9999999E-004	-4.0532257E-002	1.9977946E-004	2.1485130E-004	2.1485130E-004	0	5.968091545785622E-005	43	6.124324353419419E-009	0.000000000000000E+000	1.054194384382678E+003	0.000000000000000E+000	2.807084883845486E+005	0.000000000000000E+000	5.968091545785622E-005	5.968091545785622E-005	0.0000000E+000	0.000000000000000E+000	-8.0975129E-009
1	1	0	1	0	0	0	2.807184885770977E+005	1.9999999E-004	-4.0558990E-002	1.9979475E-004	2.1684928E-004	2.1684928E-004	0	6.023591207582002E-005	43	6.146834455747999E-009	0.000000000000000E+000	1.064137338022807E+003	0.000000000000000E+000	2.807184885770977E+005	0.000000000000000E+000	6.023591207582002E-005	6.023591207582002E-005	0.0000000E+000	0.000000000000000E+000	-8.1034734E-009
1	1	0	1	0	0	0	2.807284887696467E+005	1.9999999E-004	-4.0158052E-002	1.9975269E-004	2.1884726E-004	2.1884726E-004	0	6.079090672080686E-005	43	6.169121959559672E-009	0.000000000000000E+000	1.071833081134624E+003	0.000000000000000E+000	2.807284887696467E+005	0.000000000000000E+000	6.079090672080686E-005	6.079090672080686E-005	0.0000000E+000	0.000000000000000E+000	-8.0216784E-009
1	1	0	1	0	0	0	2.807384889621958E+005	1.9999999E-004	-3.9283626E-002	1.9979858E-004	2.2084515E-004	2.2084515E-004	0	6.134587530673080E-005	43	6.190923137809616E-009	0.000000000000000E+000	1.077005571727833E+003	0.000000000000000E+000	2.807384889621958E+005	0.000000000000000E+000	6.134587530673080E-005	6.134587530673080E-005	0.0000000E+000	0.000000000000000E+000	-7.8488132E-009
1	1	0	1	0	0	0	2.807484891547449E+005	1.9999999E-004	-3.8447380E-002	1.9976798E-004	2.2284308E-004	2.2284308E-004	0	6.190085682872046E-005	43	6.212260723315114E-009	0.000000000000000E+000	1.082335091031495E+003	0.000000000000000E+000	2.807484891547449E+005	0.000000000000000E+000	6.190085682872046E-005	6.190085682872046E-005	0.0000000E+000	0.000000000000000E+000	-7.6805557E-009
1	1	0	1	0	0	0	2.807584893472940E+005	1.9999999E-004	-3.7160560E-002	1.9976796E-004	2.2484107E-004	2.2484107E-004	0	6.245585374947567E-005	43	6.232884719959881E-009	0.000000000000000E+000	1.085256344135589E+003	0.000000000000000E+000	2.807584893472940E+005	0.000000000000000E+000	6.245585374947567E-005	6.245585374947567E-005	0.0000000E+000	0.000000000000000E+000	-7.4234894E-009
1	1	0	1	0	0	0	2.807684895398431E+005	1.9999999E-004	-3.6091395E-002	1.9976032E-004	2.2683901E-004	2.2683901E-004	0	6.301083533568858E-005	43	6.252914779451589E-009	0.000000000000000E+000	1.089278600597975E+003	0.000000000000000E+000	2.807684895398431E+005	0.000000000000000E+000	6.301083533568858E-005	6.301083533568858E-005	0.0000000E+000	0.000000000000000E+000	-7.2096289E-009
1	1	0	1	0	0	0	2.807784897323921E+005	1.9999999E-004	-3.6538150E-002	1.9979091E-004	2.2883684E-004	2.2883684E-004	0	6.356579106297835E-005	43	6.273191835148289E-009	0.000000000000000E+000	1.101234686547300E+003	0.000000000000000E+000	2.807784897323921E+005	0.000000000000000E+000	6.356579106297835E-005	6.356579106297835E-005	0.0000000E+000	0.000000000000000E+000	-7.2999904E-009
1	1	0	1	0	0	0	2.807884899249412E+005	1.9999999E-004	-3.5281882E-002	1.9979475E-004	2.3083467E-004	2.3083467E-004	0	6.412074256621176E-005	43	6.292771568429072E-009	0.000000000000000E+000	1.104173484504609E+003	0.000000000000000E+000	2.807884899249412E+005	0.000000000000000E+000	6.412074256621176E-005	6.412074256621176E-005	0.0000000E+000	0.000000000000000E+000	-7.0491351E-009
1	1	0	1	0	0	0	2.807984901174903E+005	1.9999999E-004	-3.4342539E-002	1.9982917E-004	2.3283255E-004	2.3283255E-004	0	6.467570813968713E-005	43	6.311830495038617E-009	0.000000000000000E+000	1.108748252693746E+003	0.000000000000000E+000	2.807984901174903E+005	0.000000000000000E+000	6.467570813968713E-005	6.467570813968713E-005	0.0000000E+000	0.000000000000000E+000	-6.8626411E-009
1	1	0	1	0	0	0	2.808084903100394E+005	1.9999999E-004	-3.3422291E-002	1.9980624E-004	2.3483038E-004	2.3483038E-004	0	6.523066357149542E-005	43	6.330378377127288E-009	0.000000000000000E+000	1.113382857520337E+003	0.000000000000000E+000	2.808084903100394E+005	0.000000000000000E+000	6.523066357149542E-005	6.523066357149542E-005	0.0000000E+000	0.000000000000000E+000	-6.6779822E-009
1	1	0	1	0	0	0	2.808184905025885E+005	1.9999999E-004	-3.2437127E-002	1.9975650E-004	2.3682827E-004	2.3682827E-004	0	6.578563194067747E-005	43	6.348379956645791E-009	0.000000000000000E+000	1.117634957183472E+003	0.000000000000000E+000	2.808184905025885E+005	0.000000000000000E+000	6.578563194067747E-005	6.578563194067747E-005	0.0000000E+000	0.000000000000000E+000	-6.4795267E-009
1	1	0	1	0	0	0	2.808284906951375E+005	1.9999999E-004	-3.1784173E-002	1.9979475E-004	2.3882622E-004	2.3882622E-004	0	6.634061828073026E-005	43	6.366019738546823E-009	0.000000000000000E+000	1.123601371591723E+003	0.000000000000000E+000	2.808284906951375E+005	0.000000000000000E+000	6.634061828073026E-005	6.634061828073026E-005	0.0000000E+000	0.000000000000000E+000	-6.3503109E-009
1	1	0	1	0	0	0	2.808384908876866E+005	1.9999999E-004	-3.1062486E-002	1.9980239E-004	2.4082419E-004	2.4082419E-004	0	6.689560616034012E-005	43	6.383259041593228E-009	0.000000000000000E+000	1.129167218191291E+003	0.000000000000000E+000	2.808384908876866E+005	0.000000000000000E+000	6.689560616034012E-005	6.689560616034012E-005	0.0000000E+000	0.000000000000000E+000	-6.2063590E-009
1	1	0	1	0	0	0	2.808484910802357E+005	1.9999999E-004	-3.0512627E-002	1.9977563E-004	2.4282202E-004	2.4282202E-004	0	6.745056122507635E-005	43	6.400192178604154E-009	0.000000000000000E+000	1.135606864712887E+003	0.000000000000000E+000	2.808484910802357E+005	0.000000000000000E+000	6.745056122507635E-005	6.745056122507635E-005	0.0000000E+000	0.000000000000000E+000	-6.0956795E-009
1	1	0	1	0	0	0	2.808584912727848E+005	1.9999999E-004	-2.9794756E-002	1.9976798E-004	2.4481991E-004	2.4481991E-004	0	6.800552646462489E-005	43	6.416727232684293E-009	0.000000000000000E+000	1.141119249997377E+003	0.000000000000000E+000	2.808584912727848E+005	0.000000000000000E+000	6.800552646462489E-005	6.800552646462489E-005	0.0000000E+000	0.000000000000000E+000	-5.9520384E-009
1	1	0	1	0	0	0	2.808684914653338E+005	1.9999999E-004	-2.8668312E-002	1.9978710E-004	2.4681783E-004	2.4681783E-004	0	6.856050655313447E-005	43	6.432637575212977E-009	0.000000000000000E+000	1.144423035827060E+003	0.000000000000000E+000	2.808684914653338E+005	0.000000000000000E+000	6.856050655313447E-005	6.856050655313447E-005	0.0000000E+000	0.000000000000000E+000	-5.7275589E-009
1	1	0	1	0	0	0	2.808784916578829E+005	1.9999999E-004	-2.7958078E-002	1.9981005E-004	2.4881572E-004	2.4881572E-004	0	6.911547907216623E-005	43	6.448153540359906E-009	0.000000000000000E+000	1.149899933273080E+003	0.000000000000000E+000	2.808784916578829E+005	0.000000000000000E+000	6.911547907216623E-005	6.911547907216623E-005	0.0000000E+000	0.000000000000000E+000	-5.5863052E-009
1	1	0	1	0	0	0	2.808884918504320E+005	1.9999999E-004	-2.7698424E-002	1.9979858E-004	2.5081367E-004	2.5081367E-004	0	6.967046478605092E-005	43	6.463525769817993E-009	0.000000000000000E+000	1.157744163610553E+003	0.000000000000000E+000	2.808884918504320E+005	0.000000000000000E+000	6.967046478605092E-005	6.967046478605092E-005	0.0000000E+000	0.000000000000000E+000	-5.5341056E-009
1	1	0	1	0	0	0	2.808984920429811E+005	1.9999999E-004	-2.7102742E-002	1.9977946E-004	2.5281165E-004	2.5281165E-004	0	7.022546023557030E-005	43	6.478567668488488E-009	0.000000000000000E+000	1.163766785801324E+003	0.000000000000000E+000	2.808984920429811E+005	0.000000000000000E+000	7.022546023557030E-005	7.022546023557030E-005	0.0000000E+000	0.000000000000000E+000	-5.4145715E-009
1	1	0	1	0	0	0	2.809084922355306E+005	1.9999999E-004	-2.5980117E-002	1.9976032E-004	2.5480951E-004	2.5480951E-004	0	7.078042135721545E-005	43	6.492985623247996E-009	0.000000000000000E+000	1.166933085893599E+003	0.000000000000000E+000	2.809084922355306E+005	0.000000000000000E+000	7.078042135721545E-005	7.078042135721545E-005	0.0000000E+000	0.000000000000000E+000	-5.1897966E-009
1	1	0	1	0	0	0	2.809184924280802E+005	1.9999999E-004	-2.4834579E-002	1.9976032E-004	2.5680743E-004	2.5680743E-004	0	7.133539636289707E-005	43	6.506768193790164E-009	0.000000000000000E+000	1.169945058542450E+003	0.000000000000000E+000	2.809184924280802E+005	0.000000000000000E+000	7.133539636289707E-005	7.133539636289707E-005	0.0000000E+000	0.000000000000000E+000	-4.9609636E-009
1	1	0	1	0	0	0	2.809284926206297E+005	1.9999999E-004	-2.4238899E-002	1.9981388E-004	2.5880523E-004	2.5880523E-004	0	7.189034051554983E-005	43	6.520219429251277E-009	0.000000000000000E+000	1.175855536031251E+003	0.000000000000000E+000	2.809284926206297E+005	0.000000000000000E+000	7.189034051554983E-005	7.189034051554983E-005	0.0000000E+000	0.000000000000000E+000	-4.8432685E-009
1	1	0	1	0	0	0	2.809384928131793E+005	1.9999999E-004	-2.3925787E-002	1.9980622E-004	2.6080300E-004	2.6080300E-004	0	7.244528279557885E-005	43	6.533496859950610E-009	0.000000000000000E+000	1.183248989753885E+003	0.000000000000000E+000	2.809384928131793E+005	0.000000000000000E+000	7.244528279557885E-005	7.244528279557885E-005	0.0000000E+000	0.000000000000000E+000	-4.7805209E-009
1	1	0	1	0	0	0	2.809484930057288E+005	1.9999999E-004	-2.2990266E-002	1.9979091E-004	2.6280084E-004	2.6280084E-004	0	7.300022905639020E-005	43	6.546255222025316E-009	0.000000000000000E+000	1.187273715353643E+003	0.000000000000000E+000	2.809484930057288E+005	0.000000000000000E+000	7.300022905639020E-005	7.300022905639020E-005	0.0000000E+000	0.000000000000000E+000	-4.5932462E-009
1	1	0	1	0	0	0	2.809584931982784E+005	1.9999999E-004	-2.2448044E-002	1.9980239E-004	2.6479858E-004	2.6479858E-004	0	7.355516391513568E-005	43	6.558712424301554E-009	0.000000000000000E+000	1.193375818376755E+003	0.000000000000000E+000	2.809584931982784E+005	0.000000000000000E+000	7.355516391513568E-005	7.355516391513568E-005	0.0000000E+000	0.000000000000000E+000	-4.4851731E-009
1	1	0	1	0	0	0	2.809684933908279E+005	1.9999999E-004	-2.1661442E-002	1.9978327E-004	2.6679653E-004	2.6679653E-004	0	7.411014348418071E-005	43	6.570734081921726E-009	0.000000000000000E+000	1.198132547754652E+003	0.000000000000000E+000	2.809684933908279E+005	0.000000000000000E+000	7.411014348418071E-005	7.411014348418071E-005	0.0000000E+000	0.000000000000000E+000	-4.3275938E-009
1	1	0	1	0	0	0	2.809784935833770E+005	1.9999999E-004	-2.0668643E-002	1.9984064E-004	2.6879448E-004	2.6879448E-004	0	7.466513652327881E-005	43	6.582205034689785E-009	0.000000000000000E+000	1.201747087380957E+003	0.000000000000000E+000	2.809784935833770E+005	0.000000000000000E+000	7.466513652327881E-005	7.466513652327881E-005	0.0000000E+000	0.000000000000000E+000	-4.1304347E-009
1	1	0	1	0	0	0	2.809884937759265E+005	1.9999999E-004	-1.9481102E-002	1.9976415E-004	2.7079243E-004	2.7079243E-004	0	7.522012286646997E-005	43	6.593016780252678E-009	0.000000000000000E+000	1.204285747863786E+003	0.000000000000000E+000	2.809884937759265E+005	0.000000000000000E+000	7.522012286646997E-005	7.522012286646997E-005	0.0000000E+000	0.000000000000000E+000	-3.8916257E-009
1	1	0	1	0	0	0	2.809984939684761E+005	1.9999999E-004	-1.8774688E-002	1.9980624E-004	2.7279044E-004	2.7279044E-004	0	7.577511800661564E-005	43	6.603436640985773E-009	0.000000000000000E+000	1.209371901574665E+003	0.000000000000000E+000	2.809984939684761E+005	0.000000000000000E+000	7.577511800661564E-005	7.577511800661564E-005	0.0000000E+000	0.000000000000000E+000	-3.7512997E-009
1	1	0	1	0	0	0	2.810084941610256E+005	1.9999999E-004	-1.8404298E-002	1.9978710E-004	2.7478847E-004	2.7478847E-004	0	7.633013290849744E-005	43	6.613651300373951E-009	0.000000000000000E+000	1.216232771144008E+003	0.000000000000000E+000	2.810084941610256E+005	0.000000000000000E+000	7.633013290849744E-005	7.633013290849744E-005	0.0000000E+000	0.000000000000000E+000	-3.6769412E-009
1	1	0	1	0	0	0	2.810184943535752E+005	1.9999999E-004	-1.7835347E-002	1.9981388E-004	2.7678645E-004	2.7678645E-004	0	7.688512148366700E-005	43	6.623549714183081E-009	0.000000000000000E+000	1.221998670727482E+003	0.000000000000000E+000	2.810184943535752E+005	0.000000000000000E+000	7.688512148366700E-005	7.688512148366700E-005	0.0000000E+000	0.000000000000000E+000	-3.5637497E-009
1	1	0	1	0	0	0	2.810284945461247E+005	1.9999999E-004	-1.7377133E-002	1.9976415E-004	2.7878440E-004	2.7878440E-004	0	7.744010806113349E-005	43	6.633193789503121E-009	0.000000000000000E+000	1.228334636350717E+003	0.000000000000000E+000	2.810284945461247E+005	0.000000000000000E+000	7.744010806113349E-005	7.744010806113349E-005	0.0000000E+000	0.000000000000000E+000	-3.4713281E-009
1	1	0	1	0	0	0	2.810384947386743E+005	1.9999999E-004	-1.7079292E-002	1.9981005E-004	2.8078226E-004	2.8078226E-004	0	7.799507032137869E-005	43	6.642672151920037E-009	0.000000000000000E+000	1.235515917226187E+003	0.000000000000000E+000	2.810384947386743E+005	0.000000000000000E+000	7.799507032137869E-005	7.799507032137869E-005	0.0000000E+000	0.000000000000000E+000	-3.4126142E-009
1	1	0	1	0	0	0	2.810484949312238E+005	1.9999999E-004	-1.6067402E-002	1.9977563E-004	2.8278009E-004	2.8278009E-004	0	7.855002885032768E-005	43	6.651588893940689E-009	0.000000000000000E+000	1.238791149657065E+003	0.000000000000000E+000	2.810484949312238E+005	0.000000000000000E+000	7.855002885032768E-005	7.855002885032768E-005	0.0000000E+000	0.000000000000000E+000	-3.2098755E-009
1	1	0	1	0	0	0	2.810584951237733E+005	1.9999999E-004	-1.5697012E-002	1.9978710E-004	2.8477801E-004	2.8477801E-004	0	7.910500362001848E-005	43	6.660300339407113E-009	0.000000000000000E+000	1.245522571547765E+003	0.000000000000000E+000	2.810584951237733E+005	0.000000000000000E+000	7.910500362001848E-005	7.910500362001848E-005	0.0000000E+000	0.000000000000000E+000	-3.1360605E-009
1	1	0	1	0	0	0	2.810684953163229E+005	1.9999999E-004	-1.5227340E-002	1.9977945E-004	2.8677599E-004	2.8677599E-004	0	7.965999371737417E-005	43	6.668751362405979E-009	0.000000000000000E+000	1.251689718099556E+003	0.000000000000000E+000	2.810684953163229E+005	0.000000000000000E+000	7.965999371737417E-005	7.965999371737417E-005	0.0000000E+000	0.000000000000000E+000	-3.0421097E-009
1	1	0	1	0	0	0	2.810784955088724E+005	1.9999999E-004	-1.4765307E-002	1.9977945E-004	2.8877388E-004	2.8877388E-004	0	8.021497096815842E-005	43	6.676945772062337E-009	0.000000000000000E+000	1.257873394018841E+003	0.000000000000000E+000	2.810784955088724E+005	0.000000000000000E+000	8.021497096815842E-005	8.021497096815842E-005	0.0000000E+000	0.000000000000000E+000	-2.9498048E-009
1	1	0	1	0	0	0	2.810884957014220E+005	1.9999999E-004	-1.3894700E-002	1.9978710E-004	2.9077189E-004	2.9077189E-004	0	8.076996625658649E-005	43	6.684657264826682E-009	0.000000000000000E+000	1.261791310732198E+003	0.000000000000000E+000	2.810884957014220E+005	0.000000000000000E+000	8.076996625658649E-005	8.076996625658649E-005	0.0000000E+000	0.000000000000000E+000	-2.7759817E-009
1	1	0	1	0	0	0	2.810984958939715E+005	1.9999999E-004	-1.3008817E-002	1.9978710E-004	2.9276981E-004	2.9276981E-004	0	8.132494311746025E-005	43	6.691876857303985E-009	0.000000000000000E+000	1.265595962534947E+003	0.000000000000000E+000	2.810984958939715E+005	0.000000000000000E+000	8.132494311746025E-005	8.132494311746025E-005	0.0000000E+000	0.000000000000000E+000	-2.5989939E-009
1	1	0	1	0	0	0	2.811084960865211E+005	1.9999999E-004	-1.2142027E-002	1.9977179E-004	2.9476761E-004	2.9476761E-004	0	8.187989009540857E-005	43	6.698615038381112E-009	0.000000000000000E+000	1.269475474885138E+003	0.000000000000000E+000	2.811084960865211E+005	0.000000000000000E+000	8.187989009540857E-005	8.187989009540857E-005	0.0000000E+000	0.000000000000000E+000	-2.4256344E-009
1	1	0	1	0	0	0	2.811184962790704E+005	1.9999999E-004	-1.1240871E-002	1.9977181E-004	2.9676539E-004	2.9676539E-004	0	8.243483015477088E-005	43	6.704853047830124E-009	0.000000000000000E+000	1.273138234986482E+003	0.000000000000000E+000	2.811184962790704E+005	0.000000000000000E+000	8.243483015477088E-005	8.243483015477088E-005	0.0000000E+000	0.000000000000000E+000	-2.2456090E-009
1	1	0	1	0	0	0	2.811284964716197E+005	1.9999999E-004	-1.1366880E-002	1.9976032E-004	2.9876325E-004	2.9876325E-004	0	8.298978893987482E-005	43	6.711161198022175E-009	0.000000000000000E+000	1.282402338532245E+003	0.000000000000000E+000	2.811284964716197E+005	0.000000000000000E+000	8.298978893987482E-005	8.298978893987482E-005	0.0000000E+000	0.000000000000000E+000	-2.2706517E-009
1	1	0	1	0	0	0	2.811384966641690E+005	1.9999999E-004	-9.9769607E-003	1.9977946E-004	3.0076090E-004	3.0076090E-004	0	8.354469619680862E-005	43	6.716697485927087E-009	0.000000000000000E+000	1.283320781700513E+003	0.000000000000000E+000	2.811384966641690E+005	0.000000000000000E+000	8.354469619680862E-005	8.354469619680862E-005	0.0000000E+000	0.000000000000000E+000	-1.9931918E-009
1	1	0	1	0	0	0	2.811484968567183E+005	1.9999999E-004	-9.5111094E-003	1.9979475E-004	3.0275865E-004	3.0275865E-004	0	8.409962485240733E-005	43	6.721975473102721E-009	0.000000000000000E+000	1.289282191572546E+003	0.000000000000000E+000	2.811484968567183E+005	0.000000000000000E+000	8.409962485240733E-005	8.409962485240733E-005	0.0000000E+000	0.000000000000000E+000	-1.9002697E-009
1	1	0	1	0	0	0	2.811584970492676E+005	1.9999999E-004	-8.5144918E-003	1.9980239E-004	3.0475640E-004	3.0475640E-004	0	8.465455284162535E-005	43	6.726700402939370E-009	0.000000000000000E+000	1.292304858029399E+003	0.000000000000000E+000	2.811584970492676E+005	0.000000000000000E+000	8.465455284162535E-005	8.465455284162535E-005	0.0000000E+000	0.000000000000000E+000	-1.7012158E-009
1	1	0	1	0	0	0	2.811684972418169E+005	1.9999999E-004	-8.1364652E-003	1.9975269E-004	3.0675423E-004	3.0675423E-004	0	8.520950929945603E-005	43	6.731215786853901E-009	0.000000000000000E+000	1.298694798711202E+003	0.000000000000000E+000	2.811684972418169E+005	0.000000000000000E+000	8.520950929945603E-005	8.520950929945603E-005	0.0000000E+000	0.000000000000000E+000	-1.6252808E-009
1	1	0	1	0	0	0	2.811784974343663E+005	1.9999999E-004	-7.5216927E-003	1.9977179E-004	3.0875209E-004	3.0875209E-004	0	8.576447024404317E-005	43	6.735390032519293E-009	0.000000000000000E+000	1.303759692115315E+003	0.000000000000000E+000	2.811784974343663E+005	0.000000000000000E+000	8.576447024404317E-005	8.576447024404317E-005	0.0000000E+000	0.000000000000000E+000	-1.5026220E-009
1	1	0	1	0	0	0	2.811884976269156E+005	1.9999999E-004	-7.1818503E-003	1.9976417E-004	3.1074992E-004	3.1074992E-004	0	8.631942160677863E-005	43	6.739375610109144E-009	0.000000000000000E+000	1.310315532751249E+003	0.000000000000000E+000	2.811884976269156E+005	0.000000000000000E+000	8.631942160677863E-005	8.631942160677863E-005	0.0000000E+000	0.000000000000000E+000	-1.4346764E-009
1	1	0	1	0	0	0	2.811984978194649E+005	1.9999999E-004	-6.3226977E-003	1.9981388E-004	3.1274787E-004	3.1274787E-004	0	8.687441097864212E-005	43	6.742884640154309E-009	0.000000000000000E+000	1.313979979746081E+003	0.000000000000000E+000	2.811984978194649E+005	0.000000000000000E+000	8.687441097864212E-005	8.687441097864212E-005	0.0000000E+000	0.000000000000000E+000	-1.2633627E-009
1	1	0	1	0	0	0	2.812084980120142E+005	1.9999999E-004	-5.8186613E-003	1.9975650E-004	3.1474567E-004	3.1474567E-004	0	8.742935465037994E-005	43	6.746113669422022E-009	0.000000000000000E+000	1.319579137016450E+003	0.000000000000000E+000	2.812084980120142E+005	0.000000000000000E+000	8.742935465037994E-005	8.742935465037994E-005	0.0000000E+000	0.000000000000000E+000	-1.1623154E-009
1	1	0	1	0	0	0	2.812184982045636E+005	1.9999999E-004	-5.1847971E-003	1.9978327E-004	3.1674342E-004	3.1674342E-004	0	8.798428407228736E-005	43	6.748990865881900E-009	0.000000000000000E+000	1.324435054142781E+003	0.000000000000000E+000	2.812184982045636E+005	0.000000000000000E+000	8.798428407228736E-005	8.798428407228736E-005	0.0000000E+000	0.000000000000000E+000	-1.0358358E-009
1	1	0	1	0	0	0	2.812284983971131E+005	1.9999999E-004	-5.0816988E-003	1.9976417E-004	3.1874122E-004	3.1874122E-004	0	8.853922930964392E-005	43	6.751810930408727E-009	0.000000000000000E+000	1.332214364071187E+003	0.000000000000000E+000	2.812284983971131E+005	0.000000000000000E+000	8.853922930964392E-005	8.853922930964392E-005	0.0000000E+000	0.000000000000000E+000	-1.0151413E-009
1	1	0	1	0	0	0	2.812384985896625E+005	1.9999999E-004	-3.9094323E-003	1.9977181E-004	3.2073905E-004	3.2073905E-004	0	8.909418101239458E-005	43	6.753980476536626E-009	0.000000000000000E+000	1.334028310425423E+003	0.000000000000000E+000	2.812384985896625E+005	0.000000000000000E+000	8.909418101239458E-005	8.909418101239458E-005	0.0000000E+000	0.000000000000000E+000	-7.8099438E-010
1	1	0	1	0	0	0	2.812484987822114E+005	1.9999999E-004	-4.1309032E-003	1.9974884E-004	3.2273692E-004	3.2273692E-004	0	8.964914506320121E-005	43	6.756272979291001E-009	0.000000000000000E+000	1.343575497025072E+003	0.000000000000000E+000	2.812484987822114E+005	0.000000000000000E+000	8.964914506320121E-005	8.964914506320121E-005	0.0000000E+000	0.000000000000000E+000	-8.2514312E-010
1	1	0	1	0	0	0	2.812584989747609E+005	1.9999999E-004	-3.4206696E-003	1.9977563E-004	3.2473478E-004	3.2473478E-004	0	9.020410849185282E-005	43	6.758171325812436E-009	0.000000000000000E+000	1.347907329425850E+003	0.000000000000000E+000	2.812584989747609E+005	0.000000000000000E+000	9.020410849185282E-005	9.020410849185282E-005	0.0000000E+000	0.000000000000000E+000	-6.8336642E-010
1	1	0	1	0	0	0	2.812684991673103E+005	1.9999999E-004	-2.5424242E-003	1.9978710E-004	3.2673267E-004	3.2673267E-004	0	9.075907359386150E-005	43	6.759582282544871E-009	0.000000000000000E+000	1.351274142880917E+003	0.000000000000000E+000	2.812684991673103E+005	0.000000000000000E+000	9.075907359386150E-005	9.075907359386150E-005	0.0000000E+000	0.000000000000000E+000	-5.0794358E-010
1	1	0	1	0	0	0	2.812784993598597E+005	1.9999999E-004	-1.4923487E-003	1.9977179E-004	3.2873059E-004	3.2873059E-004	0	9.131405420411141E-005	43	6.760410507155099E-009	0.000000000000000E+000	1.353658360530287E+003	0.000000000000000E+000	2.812784993598597E+005	0.000000000000000E+000	9.131405420411141E-005	9.131405420411141E-005	0.0000000E+000	0.000000000000000E+000	-2.9812919E-010
1	1	0	1	0	0	0	2.812884995524092E+005	1.9999999E-004	-2.2713139E-003	1.9980624E-004	3.3072839E-004	3.3072839E-004	0	9.186899479159749E-005	43	6.761670951435538E-009	0.000000000000000E+000	1.366267382632924E+003	0.000000000000000E+000	2.812884995524092E+005	0.000000000000000E+000	9.186899479159749E-005	9.186899479159749E-005	0.0000000E+000	0.000000000000000E+000	-4.5382267E-010
1	1	0	1	0	0	0	2.812984997449586E+005	1.9999999E-004	-1.1906904E-003	1.9976031E-004	3.3272628E-004	3.3272628E-004	0	9.242396911839024E-005	43	6.762331754060965E-009	0.000000000000000E+000	1.368412150444523E+003	0.000000000000000E+000	2.812984997449586E+005	0.000000000000000E+000	9.242396911839024E-005	9.242396911839024E-005	0.0000000E+000	0.000000000000000E+000	-2.3785268E-010
1	1	0	1	0	0	0	2.813056903396032E+005	1.9999999E-004	4.4867447E-006	1.9978710E-004	3.3416288E-004	3.3416288E-004	0	9.282301749984537E-005	43	6.762333544489187E-009	0.000000000000000E+000	1.367598043886265E+003	0.000000000000000E+000	2.813056903396032E+005	0.000000000000000E+000	9.282301749984537E-005	9.282301749984537E-005	0.0000000E+000	0.000000000000000E+000	8.9639374E-013
1	1	0	1	0	0	0	2.813056905396031E+005	1.9999999E-004	-2.6060743E-005	1.9978710E-004	3.3416291E-004	3.3416291E-004	0	9.282302859912872E-005	43	6.762333544778443E-009	0.000000000000000E+000	1.367769203861819E+003	0.000000000000000E+000	2.813056905396031E+005	0.000000000000000E+000	9.282302859912872E-005	9.282302859912872E-005	0.0000000E+000	0.000000000000000E+000	-5.2066003E-012