EC-Lab ASCII FILE
Nb header lines : 48                          

Open Circuit Voltage

Run on channel : 3 (SN 13150)
User : 
Electrode connection : standard
Potential control : Ewe
Ewe ctrl range : min = -1.00 V, max = 1.00 V
Ewe,I filtering : 5 Hz
Safety Limits :
	Do not start on E overload
Channel : Floating
Acquisition started on : 07/01/2024 16:51:05.709
Loaded Setting File :  C:\Users\mAtsuhitA\Desktop\Oyafuso\20240624_???????4\1540_A.mps
Saved on :
	File : 600_B_05_OCV_C03.mpr
	Directory : C:\Users\mAtsuhitA\Desktop\Oyafuso\20240624_???????4\600_B\
	Host : 192.109.209.100
Device : VSP-300 (SN 0834)
Address : 192.109.209.128
EC-Lab for windows v11.50 (software)
Internet server v11.50 (firmware)
Command interpretor v11.50 (firmware)
Electrode material : 
Initial state : 
Electrolyte : 
Comments : 
Cable : standard
Electrode surface area : 0.001 cm2
Characteristic mass : 0.001 g
Equivalent Weight : 0.000 g/eq.
Density : 0.000 g/cm3
Volume (V) : 0.001 cm3
Text export
   Mode : Standard
   Time format : Elapsed
Cycle Definition : Charge/Discharge alternance
tR (h:m:s)          5:00:0.0000         
dER/dt (mV/h)       0.0                 
record              Ewe                 
dER (mV)            10.00               
dtR (s)             30.0000             
E range min (V)     -1.000              
E range max (V)     1.000               

mode	error	time/s	Ewe/V	
3	0	2.365032962044087E+005	-1.5029712E-003
3	0	2.365033826044220E+005	-1.1518752E-002
3	0	2.365035820044519E+005	-2.1586072E-002
3	0	2.365038452044943E+005	-3.1653393E-002
3	0	2.365041638045446E+005	-4.1658703E-002
3	0	2.365045376046025E+005	-5.1663063E-002
3	0	2.365049694046704E+005	-6.1682697E-002
3	0	2.365055022047530E+005	-7.1694694E-002
3	0	2.365061146048484E+005	-8.1702866E-002
3	0	2.365068954049707E+005	-9.1711044E-002
3	0	2.365078228051178E+005	-1.0172686E-001
3	0	2.365089638052965E+005	-1.1173122E-001
3	0	2.365103956055185E+005	-1.2174322E-001
3	0	2.365122738058134E+005	-1.3175903E-001
3	0	2.365147804062057E+005	-1.4177485E-001
3	0	2.365185246067918E+005	-1.5177539E-001
3	0	2.365252978078509E+005	-1.6177592E-001
3	0	2.365409846103052E+005	-1.7177646E-001
3	0	2.365709846149991E+005	-1.8066584E-001
3	0	2.366009846196930E+005	-1.8527853E-001
3	0	2.366309846243870E+005	-1.8905881E-001
3	0	2.366609846290808E+005	-1.9190738E-001
3	0	2.366909846337747E+005	-1.9404571E-001
3	0	2.367209846384686E+005	-1.9572583E-001
3	0	2.367509846431624E+005	-1.9761597E-001
3	0	2.367809846478563E+005	-1.9903262E-001
3	0	2.368109846525502E+005	-2.0107931E-001
3	0	2.368409846572440E+005	-2.0201865E-001
3	0	2.368709846619379E+005	-2.0348494E-001
3	0	2.369009846666318E+005	-2.0450827E-001
3	0	2.369309846713254E+005	-2.0561182E-001
3	0	2.369609846760193E+005	-2.0661989E-001
3	0	2.369909846807131E+005	-2.0730720E-001
3	0	2.370209846854070E+005	-2.0848331E-001
3	0	2.370509846901009E+005	-2.0912480E-001
3	0	2.370809846947947E+005	-2.1010615E-001
3	0	2.371109846994886E+005	-2.1103403E-001
3	0	2.371409847041825E+005	-2.1154188E-001
3	0	2.371709847088763E+005	-2.1230558E-001
3	0	2.372009847135702E+005	-2.1314946E-001
3	0	2.372309847182641E+005	-2.1406971E-001
3	0	2.372609847229579E+005	-2.1461193E-001
3	0	2.372909847276518E+005	-2.1539088E-001
3	0	2.373209847323456E+005	-2.1592930E-001
3	0	2.373509847370395E+005	-2.1647534E-001
3	0	2.373809847417334E+005	-2.1723521E-001
3	0	2.374109847464272E+005	-2.1789198E-001
3	0	2.374409847511211E+005	-2.1856785E-001
3	0	2.374709847558149E+005	-2.1921317E-001
3	0	2.375009847605088E+005	-2.1996540E-001
3	0	2.375309847652022E+005	-2.2045034E-001
3	0	2.375609847698961E+005	-2.2108421E-001
3	0	2.375909847745899E+005	-2.2166844E-001
3	0	2.376209847792838E+005	-2.2222592E-001
3	0	2.376509847839777E+005	-2.2241686E-001
3	0	2.376809847886715E+005	-2.2267269E-001
3	0	2.377109847933654E+005	-2.2303925E-001
3	0	2.377409847980593E+005	-2.2353567E-001
3	0	2.377709848027531E+005	-2.2395569E-001
3	0	2.378009848074470E+005	-2.2450937E-001
3	0	2.378309848121409E+005	-2.2491030E-001
3	0	2.378609848168347E+005	-2.2511269E-001
3	0	2.378909848215286E+005	-2.2515470E-001
3	0	2.379209848262226E+005	-2.2535706E-001
3	0	2.379509848309165E+005	-2.2533797E-001
3	0	2.379809848356103E+005	-2.2518525E-001
3	0	2.380109848403042E+005	-2.2537616E-001
3	0	2.380409848449981E+005	-2.2574656E-001
3	0	2.380709848496919E+005	-2.2600240E-001
3	0	2.381009848543858E+005	-2.2653314E-001
3	0	2.381309848590797E+005	-2.2651787E-001
3	0	2.381609848637735E+005	-2.2672024E-001
3	0	2.381909848684674E+005	-2.2695318E-001
3	0	2.382209848731610E+005	-2.2728539E-001
3	0	2.382509848778549E+005	-2.2746868E-001
3	0	2.382809848825487E+005	-2.2782761E-001
3	0	2.383109848872426E+005	-2.2793452E-001
3	0	2.383409848919365E+005	-2.2819036E-001
3	0	2.383709848966303E+005	-2.2822472E-001
3	0	2.384009849013242E+005	-2.2896934E-001
3	0	2.384309849060181E+005	-2.2922517E-001
3	0	2.384609849107119E+005	-2.2933972E-001
3	0	2.384909849154058E+005	-2.2926717E-001
3	0	2.385209849200997E+005	-2.2950771E-001
3	0	2.385509849247935E+005	-2.2956118E-001
3	0	2.385809849294874E+005	-2.2993539E-001
3	0	2.386109849341813E+005	-2.3039743E-001
3	0	2.386409849388751E+005	-2.3051961E-001
3	0	2.386709849435690E+005	-2.3091292E-001
3	0	2.387009849482629E+005	-2.3118022E-001
3	0	2.387309849529567E+005	-2.3132913E-001
3	0	2.387609849576506E+005	-2.3148951E-001
3	0	2.387909849623445E+005	-2.3172244E-001
3	0	2.388209849670379E+005	-2.3203173E-001
3	0	2.388509849717317E+005	-2.3210810E-001
3	0	2.388809849764256E+005	-2.3241358E-001
3	0	2.389109849811195E+005	-2.3183316E-001
3	0	2.389409849858133E+005	-2.3195536E-001
3	0	2.389709849905072E+005	-2.3211575E-001
3	0	2.390009849952011E+005	-2.3216155E-001
3	0	2.390309849998949E+005	-2.3243266E-001
3	0	2.390609850045888E+005	-2.3248230E-001
3	0	2.390909850092827E+005	-2.3265031E-001
3	0	2.391209850139765E+005	-2.3285270E-001
3	0	2.391509850186704E+005	-2.3304363E-001
3	0	2.391809850233644E+005	-2.3316580E-001
3	0	2.392109850280582E+005	-2.3331091E-001
3	0	2.392409850327521E+005	-2.3331091E-001
3	0	2.392709850374460E+005	-2.3355912E-001
3	0	2.393009850421398E+005	-2.3362403E-001
3	0	2.393309850468337E+005	-2.3371950E-001
3	0	2.393609850515276E+005	-2.3405170E-001
3	0	2.393909850562214E+005	-2.3415479E-001
3	0	2.394209850609153E+005	-2.3428462E-001
3	0	2.394509850656092E+005	-2.3429608E-001
3	0	2.394809850703028E+005	-2.3442972E-001
3	0	2.395109850749967E+005	-2.3441063E-001
3	0	2.395409850796905E+005	-2.3472373E-001
3	0	2.395709850843844E+005	-2.3489176E-001
3	0	2.396009850890783E+005	-2.3498721E-001
3	0	2.396309850937721E+005	-2.3499486E-001
3	0	2.396609850984660E+005	-2.3530033E-001
3	0	2.396909851031599E+005	-2.3527361E-001
3	0	2.397209851078537E+005	-2.3544542E-001
3	0	2.397509851125476E+005	-2.3559053E-001
3	0	2.397809851172414E+005	-2.3559818E-001
3	0	2.398109851219353E+005	-2.3573564E-001
3	0	2.398409851266292E+005	-2.3581582E-001
3	0	2.398709851313230E+005	-2.3598766E-001
3	0	2.399009851360169E+005	-2.3597237E-001
3	0	2.399309851407108E+005	-2.3589219E-001
3	0	2.399609851454046E+005	-2.3589982E-001
3	0	2.399909851500985E+005	-2.3594564E-001
3	0	2.400209851547924E+005	-2.3603348E-001
3	0	2.400509851594862E+005	-2.3621294E-001
3	0	2.400809851641796E+005	-2.3630458E-001
3	0	2.401109851688735E+005	-2.3664825E-001
3	0	2.401409851735674E+005	-2.3661388E-001
3	0	2.401709851782612E+005	-2.3685063E-001
3	0	2.402009851829551E+005	-2.3694228E-001
3	0	2.402309851876490E+005	-2.3698428E-001
3	0	2.402609851923428E+005	-2.3703009E-001
3	0	2.402909851970367E+005	-2.3728211E-001
3	0	2.403209852017306E+005	-2.3733556E-001
3	0	2.403509852064244E+005	-2.3740812E-001
3	0	2.403809852111183E+005	-2.3743865E-001
3	0	2.404109852158122E+005	-2.3750359E-001
3	0	2.404409852205060E+005	-2.3720193E-001
3	0	2.404709852252000E+005	-2.3730120E-001
3	0	2.405009852298939E+005	-2.3751122E-001
3	0	2.405309852345877E+005	-2.3764868E-001
3	0	2.405609852392816E+005	-2.3786634E-001
3	0	2.405909852439755E+005	-2.3790833E-001
3	0	2.406209852486693E+005	-2.3822910E-001
3	0	2.406509852533632E+005	-2.3818326E-001
3	0	2.406809852580571E+005	-2.3840855E-001
3	0	2.407109852627509E+005	-2.3863766E-001
3	0	2.407409852674448E+005	-2.3866440E-001
3	0	2.407709852721384E+005	-2.3871402E-001
3	0	2.408009852768323E+005	-2.3880567E-001
3	0	2.408309852815262E+005	-2.3879041E-001
3	0	2.408609852862200E+005	-2.3903096E-001
3	0	2.408909852909139E+005	-2.3880950E-001
3	0	2.409209852956078E+005	-2.3904242E-001
3	0	2.409509853003016E+005	-2.3887441E-001
3	0	2.409809853049955E+005	-2.3904242E-001
3	0	2.410109853096894E+005	-2.3911497E-001
3	0	2.410409853143832E+005	-2.3907678E-001
3	0	2.410709853190771E+005	-2.3920280E-001
3	0	2.411009853237710E+005	-2.3941663E-001
3	0	2.411309853284648E+005	-2.3933262E-001
3	0	2.411609853331587E+005	-2.3934026E-001
3	0	2.411909853378526E+005	-2.3944336E-001
3	0	2.412209853425464E+005	-2.3953499E-001
3	0	2.412509853472403E+005	-2.3978320E-001
3	0	2.412809853519341E+005	-2.3984048E-001
3	0	2.413109853566280E+005	-2.3990920E-001
3	0	2.413409853613218E+005	-2.3964955E-001
3	0	2.413709853660152E+005	-2.3966101E-001
3	0	2.414009853707091E+005	-2.3979083E-001
3	0	2.414309853754030E+005	-2.3964955E-001
3	0	2.414609853800968E+005	-2.3968391E-001
3	0	2.414909853847907E+005	-2.3994356E-001
3	0	2.415209853894846E+005	-2.4000849E-001
3	0	2.415509853941784E+005	-2.4004667E-001
3	0	2.415809853988723E+005	-2.4010776E-001
3	0	2.416109854035662E+005	-2.4019179E-001
3	0	2.416409854082600E+005	-2.4053544E-001
3	0	2.416709854129539E+005	-2.4042088E-001
3	0	2.417009854176478E+005	-2.4060799E-001
3	0	2.417309854223417E+005	-2.4064998E-001
3	0	2.417609854270356E+005	-2.4094018E-001
3	0	2.417909854317295E+005	-2.4089438E-001
3	0	2.418209854364233E+005	-2.4093637E-001
3	0	2.418509854411172E+005	-2.4104330E-001
3	0	2.418809854458111E+005	-2.4109294E-001
3	0	2.419109854505049E+005	-2.4133350E-001
3	0	2.419409854551988E+005	-2.4131440E-001
3	0	2.419709854598927E+005	-2.4134877E-001
3	0	2.420009854645865E+005	-2.4139458E-001
3	0	2.420309854692802E+005	-2.4173443E-001
3	0	2.420609854739740E+005	-2.4166571E-001
3	0	2.420909854786679E+005	-2.4188335E-001
3	0	2.421209854833618E+005	-2.4184136E-001
3	0	2.421509854880556E+005	-2.4197118E-001
3	0	2.421809854927495E+005	-2.4205518E-001
3	0	2.422109854974434E+005	-2.4246377E-001
3	0	2.422409855021372E+005	-2.4274632E-001
3	0	2.422709855068311E+005	-2.4253631E-001
3	0	2.423009855115250E+005	-2.4233012E-001
3	0	2.423309855162188E+005	-2.4240266E-001
3	0	2.423609855209127E+005	-2.4240647E-001
3	0	2.423909855256065E+005	-2.4247521E-001
3	0	2.424209855303004E+005	-2.4243702E-001
3	0	2.424509855349943E+005	-2.4276924E-001
3	0	2.424809855396881E+005	-2.4270432E-001
3	0	2.425109855443820E+005	-2.4259740E-001
3	0	2.425409855490759E+005	-2.4290289E-001
3	0	2.425709855537697E+005	-2.4296778E-001
3	0	2.426009855584636E+005	-2.4366276E-001
3	0	2.426309855631570E+005	-2.4335727E-001
3	0	2.426609855678509E+005	-2.4359021E-001
3	0	2.426909855725447E+005	-2.4368948E-001
3	0	2.427209855772386E+005	-2.4357493E-001
3	0	2.427509855819325E+005	-2.4372002E-001
3	0	2.427809855866263E+005	-2.4372385E-001
3	0	2.428109855913202E+005	-2.4369331E-001
3	0	2.428409855960141E+005	-2.4366276E-001
3	0	2.428709856007079E+005	-2.4399877E-001
3	0	2.429009856054018E+005	-2.4415916E-001
3	0	2.429309856100957E+005	-2.4422407E-001
3	0	2.429609856147895E+005	-2.4430807E-001
3	0	2.429909856194834E+005	-2.4436916E-001
3	0	2.430209856241774E+005	-2.4431190E-001
3	0	2.430509856288712E+005	-2.4446844E-001
3	0	2.430809856335651E+005	-2.4487321E-001
3	0	2.431109856382590E+005	-2.4518250E-001
3	0	2.431409856429528E+005	-2.4512140E-001
3	0	2.431709856476467E+005	-2.4474719E-001
3	0	2.432009856523406E+005	-2.4475101E-001
3	0	2.432309856570344E+005	-2.4512140E-001
3	0	2.432609856617283E+005	-2.4505267E-001
3	0	2.432909856664222E+005	-2.4479683E-001
3	0	2.433209856711158E+005	-2.4456008E-001
3	0	2.433509856758097E+005	-2.4435771E-001
3	0	2.433809856805035E+005	-2.4433099E-001
3	0	2.434109856851974E+005	-2.4452955E-001
3	0	2.434409856898913E+005	-2.4441117E-001
3	0	2.434709856945851E+005	-2.4453719E-001
3	0	2.435009856992790E+005	-2.4434625E-001
3	0	2.435309857039729E+005	-2.4439590E-001
3	0	2.435609857086667E+005	-2.4460973E-001
3	0	2.435909857133606E+005	-2.4424697E-001
3	0	2.436209857180545E+005	-2.4455626E-001
3	0	2.436509857227483E+005	-2.4425079E-001
3	0	2.436809857274422E+005	-2.4453336E-001
3	0	2.437109857321361E+005	-2.4456391E-001
3	0	2.437409857368299E+005	-2.4468991E-001
3	0	2.437709857415238E+005	-2.4446845E-001
3	0	2.438009857462177E+005	-2.4455245E-001
3	0	2.438309857509115E+005	-2.4439208E-001
3	0	2.438609857556054E+005	-2.4480829E-001
3	0	2.438909857602993E+005	-2.4479683E-001
3	0	2.439209857649927E+005	-2.4481210E-001
3	0	2.439509857696865E+005	-2.4502976E-001
3	0	2.439809857743804E+005	-2.4501449E-001
3	0	2.440109857790743E+005	-2.4459063E-001
3	0	2.440409857837681E+005	-2.4444553E-001
3	0	2.440709857884620E+005	-2.4447989E-001
3	0	2.441009857931559E+005	-2.4459827E-001
3	0	2.441309857978497E+005	-2.4462119E-001
3	0	2.441609858025436E+005	-2.4443027E-001
3	0	2.441909858072374E+005	-2.4435771E-001
3	0	2.442209858119313E+005	-2.4448372E-001
3	0	2.442509858166252E+005	-2.4426989E-001
3	0	2.442809858213190E+005	-2.4468610E-001
3	0	2.443109858260130E+005	-2.4428134E-001
3	0	2.443409858307069E+005	-2.4437299E-001
3	0	2.443709858354008E+005	-2.4467082E-001
3	0	2.444009858400946E+005	-2.4444936E-001
3	0	2.444309858447885E+005	-2.4456009E-001
3	0	2.444609858494824E+005	-2.4451809E-001
3	0	2.444909858541762E+005	-2.4496867E-001
3	0	2.445209858588701E+005	-2.4489993E-001
3	0	2.445509858635640E+005	-2.4434243E-001
3	0	2.445809858682578E+005	-2.4456392E-001
3	0	2.446109858729515E+005	-2.4470137E-001
3	0	2.446409858776453E+005	-2.4501830E-001
3	0	2.446709858823392E+005	-2.4491139E-001
3	0	2.447009858870331E+005	-2.4468228E-001
3	0	2.447309858917269E+005	-2.4485029E-001
3	0	2.447609858964208E+005	-2.4482737E-001
3	0	2.447909859011146E+005	-2.4520923E-001
3	0	2.448209859058085E+005	-2.4518631E-001
3	0	2.448509859105024E+005	-2.4509849E-001
3	0	2.448809859151962E+005	-2.4527031E-001
3	0	2.449109859198901E+005	-2.4496867E-001
3	0	2.449409859245840E+005	-2.4491139E-001
3	0	2.449709859292778E+005	-2.4521305E-001
3	0	2.450009859339717E+005	-2.4525122E-001
3	0	2.450309859386656E+005	-2.4515578E-001
3	0	2.450609859433594E+005	-2.4562544E-001
3	0	2.450909859480533E+005	-2.4559870E-001
3	0	2.451209859527472E+005	-2.4546126E-001
3	0	2.451509859574410E+005	-2.4532378E-001
3	0	2.451809859621349E+005	-2.4521305E-001
3	0	2.452109859668283E+005	-2.4509086E-001
3	0	2.452409859715222E+005	-2.4509849E-001
3	0	2.452709859762160E+005	-2.4501449E-001
3	0	2.453009859809099E+005	-2.4509467E-001
3	0	2.453309859856038E+005	-2.4506794E-001
3	0	2.453609859902976E+005	-2.4518250E-001
3	0	2.453909859949915E+005	-2.4483885E-001
3	0	2.454209859996854E+005	-2.4472427E-001
3	0	2.454509860043792E+005	-2.4470519E-001
3	0	2.454809860090731E+005	-2.4478157E-001
3	0	2.455109860137670E+005	-2.4491139E-001
3	0	2.455409860184608E+005	-2.4490376E-001
3	0	2.455709860231548E+005	-2.4480829E-001
3	0	2.456009860278487E+005	-2.4477011E-001
3	0	2.456309860325425E+005	-2.4493431E-001
3	0	2.456609860372364E+005	-2.4496867E-001
3	0	2.456909860419303E+005	-2.4498013E-001
3	0	2.457209860466241E+005	-2.4504504E-001
3	0	2.457509860513180E+005	-2.4488465E-001
3	0	2.457809860560119E+005	-2.4484648E-001
3	0	2.458109860607057E+005	-2.4505650E-001
3	0	2.458409860653996E+005	-2.4499539E-001
3	0	2.458709860700932E+005	-2.4501449E-001
3	0	2.459009860747871E+005	-2.4499540E-001
3	0	2.459309860794810E+005	-2.4473955E-001
3	0	2.459609860841748E+005	-2.4479301E-001
3	0	2.459909860888687E+005	-2.4481593E-001
3	0	2.460209860935626E+005	-2.4491520E-001
3	0	2.460509860982564E+005	-2.4482737E-001
3	0	2.460809861029503E+005	-2.4471281E-001
3	0	2.461109861076442E+005	-2.4433480E-001
3	0	2.461409861123380E+005	-2.4447991E-001
3	0	2.461709861170319E+005	-2.4438825E-001
3	0	2.462009861217258E+005	-2.4423553E-001
3	0	2.462309861264196E+005	-2.4449137E-001
3	0	2.462609861311135E+005	-2.4443026E-001
3	0	2.462909861358074E+005	-2.4454100E-001
3	0	2.463209861405012E+005	-2.4447608E-001
3	0	2.463509861451951E+005	-2.4461737E-001
3	0	2.463809861498890E+005	-2.4446845E-001
3	0	2.464109861545828E+005	-2.4451809E-001
3	0	2.464409861592767E+005	-2.4454099E-001
3	0	2.464709861639701E+005	-2.4446081E-001
3	0	2.465009861686639E+005	-2.4450281E-001
3	0	2.465309861733578E+005	-2.4446464E-001
3	0	2.465609861780517E+005	-2.4464792E-001
3	0	2.465909861827455E+005	-2.4472810E-001
3	0	2.466209861874394E+005	-2.4482356E-001
3	0	2.466509861921333E+005	-2.4487703E-001
3	0	2.466809861968271E+005	-2.4482739E-001
3	0	2.467109862015210E+005	-2.4481593E-001
3	0	2.467409862062149E+005	-2.4503358E-001
3	0	2.467709862109087E+005	-2.4495339E-001
3	0	2.468009862156026E+005	-2.4495721E-001
3	0	2.468309862202965E+005	-2.4493431E-001
3	0	2.468609862249905E+005	-2.4492666E-001
3	0	2.468909862296843E+005	-2.4515958E-001
3	0	2.469209862343782E+005	-2.4511378E-001
3	0	2.469509862390721E+005	-2.4536960E-001
3	0	2.469809862437659E+005	-2.4543832E-001
3	0	2.470109862484598E+005	-2.4554525E-001
3	0	2.470409862531536E+005	-2.4565980E-001
3	0	2.470709862578475E+005	-2.4567507E-001
3	0	2.471009862625414E+005	-2.4548033E-001
3	0	2.471309862672352E+005	-2.4582782E-001
3	0	2.471609862719289E+005	-2.4551852E-001
3	0	2.471909862766227E+005	-2.4569799E-001
3	0	2.472209862813166E+005	-2.4569800E-001
3	0	2.472509862860105E+005	-2.4571708E-001
3	0	2.472809862907043E+005	-2.4584691E-001
3	0	2.473109862953982E+005	-2.4583928E-001
3	0	2.473409863000921E+005	-2.4588509E-001
3	0	2.473709863047859E+005	-2.4589655E-001
3	0	2.474009863094798E+005	-2.4596147E-001
3	0	2.474309863141737E+005	-2.4610275E-001
3	0	2.474609863188675E+005	-2.4606456E-001
3	0	2.474909863235614E+005	-2.4607985E-001
3	0	2.475209863282552E+005	-2.4622875E-001
3	0	2.475509863329490E+005	-2.4628603E-001
3	0	2.475809863376429E+005	-2.4643494E-001
3	0	2.476109863423368E+005	-2.4637005E-001
3	0	2.476409863470306E+005	-2.4657623E-001
3	0	2.476709863517245E+005	-2.4642350E-001
3	0	2.477009863564183E+005	-2.4647313E-001
3	0	2.477309863611122E+005	-2.4648459E-001
3	0	2.477609863658056E+005	-2.4647313E-001
3	0	2.477909863704995E+005	-2.4656478E-001
3	0	2.478209863751933E+005	-2.4628985E-001
3	0	2.478509863798872E+005	-2.4608366E-001
3	0	2.478809863845811E+005	-2.4637003E-001
3	0	2.479109863892749E+005	-2.4643113E-001
3	0	2.479409863939688E+005	-2.4632421E-001
3	0	2.479709863986627E+005	-2.4639295E-001
3	0	2.480009864033565E+005	-2.4654569E-001
3	0	2.480309864080504E+005	-2.4660678E-001
3	0	2.480609864127443E+005	-2.4679388E-001
3	0	2.480909864174381E+005	-2.4650368E-001
3	0	2.481209864221322E+005	-2.4637768E-001
3	0	2.481509864268261E+005	-2.4630131E-001
3	0	2.481809864315200E+005	-2.4622113E-001
3	0	2.482109864362138E+005	-2.4629748E-001
3	0	2.482409864409077E+005	-2.4614476E-001
3	0	2.482709864456016E+005	-2.4663734E-001
3	0	2.483009864502954E+005	-2.4647696E-001
3	0	2.483309864549893E+005	-2.4620585E-001
3	0	2.483609864596832E+005	-2.4638914E-001
3	0	2.483909864643770E+005	-2.4617529E-001
3	0	2.484209864690707E+005	-2.4619821E-001
3	0	2.484509864737645E+005	-2.4633949E-001
3	0	2.484809864784584E+005	-2.4631275E-001
3	0	2.485109864831523E+005	-2.4641967E-001
3	0	2.485409864878461E+005	-2.4643496E-001
3	0	2.485709864925400E+005	-2.4648078E-001
3	0	2.486009864972339E+005	-2.4641585E-001
3	0	2.486309865019277E+005	-2.4643877E-001
3	0	2.486609865066216E+005	-2.4652660E-001
3	0	2.486909865113155E+005	-2.4656478E-001
3	0	2.487209865160093E+005	-2.4655333E-001
3	0	2.487509865207032E+005	-2.4652278E-001
3	0	2.487809865253970E+005	-2.4651133E-001
3	0	2.488109865300907E+005	-2.4667934E-001
3	0	2.488409865347845E+005	-2.4666025E-001
3	0	2.488709865394784E+005	-2.4700771E-001
3	0	2.489009865441723E+005	-2.4697335E-001
3	0	2.489309865488661E+005	-2.4701154E-001
3	0	2.489609865535600E+005	-2.4674043E-001
3	0	2.489909865582539E+005	-2.4680153E-001
3	0	2.490209865629473E+005	-2.4683972E-001
3	0	2.490509865676411E+005	-2.4679388E-001
3	0	2.490809865723350E+005	-2.4690844E-001
3	0	2.491109865770289E+005	-2.4698099E-001
3	0	2.491409865817227E+005	-2.4699627E-001
3	0	2.491709865864166E+005	-2.4696572E-001
3	0	2.492009865911105E+005	-2.4708027E-001
3	0	2.492309865958043E+005	-2.4701536E-001
3	0	2.492609866004982E+005	-2.4699627E-001
3	0	2.492909866051921E+005	-2.4717955E-001
3	0	2.493209866098859E+005	-2.4698099E-001
3	0	2.493509866145798E+005	-2.4702682E-001
3	0	2.493809866192737E+005	-2.4711081E-001
3	0	2.494109866239678E+005	-2.4697335E-001
3	0	2.494409866286616E+005	-2.4691990E-001
3	0	2.494709866333555E+005	-2.4689698E-001
3	0	2.495009866380494E+005	-2.4691607E-001
3	0	2.495309866427432E+005	-2.4690081E-001
3	0	2.495609866474371E+005	-2.4696572E-001
3	0	2.495909866521310E+005	-2.4685499E-001
3	0	2.496209866568248E+005	-2.4710318E-001
3	0	2.496509866615187E+005	-2.4708028E-001
3	0	2.496809866662126E+005	-2.4712609E-001
3	0	2.497109866709062E+005	-2.4725592E-001
3	0	2.497409866756001E+005	-2.4719101E-001
3	0	2.497709866802939E+005	-2.4729410E-001
3	0	2.498009866849878E+005	-2.4779814E-001
3	0	2.498309866896817E+005	-2.4788597E-001
3	0	2.498609866943755E+005	-2.4773324E-001
3	0	2.498909866990694E+005	-2.4788214E-001
3	0	2.499209867037633E+005	-2.4754612E-001
3	0	2.499509867084571E+005	-2.4788597E-001
3	0	2.499809867131510E+005	-2.4757667E-001
3	0	2.500109867178448E+005	-2.4757285E-001
3	0	2.500409867225387E+005	-2.4758431E-001
3	0	2.500709867272326E+005	-2.4765304E-001
3	0	2.501009867319262E+005	-2.4755758E-001
3	0	2.501309867366201E+005	-2.4746212E-001
3	0	2.501609867413139E+005	-2.4746977E-001
3	0	2.501909867460078E+005	-2.4763013E-001
3	0	2.502209867507017E+005	-2.4760722E-001
3	0	2.502509867553955E+005	-2.4767596E-001
3	0	2.502809867600894E+005	-2.4761868E-001
3	0	2.503109867647828E+005	-2.4769887E-001
3	0	2.503409867694767E+005	-2.4773705E-001
3	0	2.503709867741705E+005	-2.4784015E-001
3	0	2.504009867788644E+005	-2.4776760E-001
3	0	2.504309867835583E+005	-2.4783634E-001
3	0	2.504609867882521E+005	-2.4771032E-001
3	0	2.504909867929460E+005	-2.4785925E-001
3	0	2.505209867976399E+005	-2.4775997E-001
3	0	2.505509868023337E+005	-2.4786688E-001
3	0	2.505809868070276E+005	-2.4804252E-001
3	0	2.506109868117215E+005	-2.4804634E-001
3	0	2.506409868164153E+005	-2.4835946E-001
3	0	2.506709868211092E+005	-2.4834037E-001
3	0	2.507009868258033E+005	-2.4836329E-001
3	0	2.507309868304972E+005	-2.4827164E-001
3	0	2.507609868351910E+005	-2.4867639E-001
3	0	2.507909868398849E+005	-2.4964628E-001
3	0	2.508209868445788E+005	-2.4941717E-001
3	0	2.508509868492726E+005	-2.4923770E-001
3	0	2.508809868539665E+005	-2.4884440E-001
3	0	2.509109868586604E+005	-2.4913460E-001
3	0	2.509409868633542E+005	-2.4901624E-001
3	0	2.509709868680481E+005	-2.4827164E-001
3	0	2.510009868727417E+005	-2.4826781E-001
3	0	2.510309868774356E+005	-2.4860767E-001
3	0	2.510609868821295E+005	-2.4860002E-001
3	0	2.510909868868233E+005	-2.4926062E-001
3	0	2.511209868915172E+005	-2.4895132E-001
3	0	2.511509868962110E+005	-2.4833655E-001
3	0	2.511809869009049E+005	-2.4848165E-001
3	0	2.512109869055988E+005	-2.4851219E-001
3	0	2.512409869102926E+005	-2.4865730E-001
3	0	2.512709869149865E+005	-2.4847402E-001
3	0	2.513009869196804E+005	-2.4834418E-001
3	0	2.513309869243742E+005	-2.4838237E-001
3	0	2.513609869290679E+005	-2.4841291E-001
3	0	2.513909869337617E+005	-2.4835183E-001
3	0	2.514209869384556E+005	-2.4819145E-001
3	0	2.514509869431495E+005	-2.4800816E-001
3	0	2.514809869478433E+005	-2.4787070E-001
3	0	2.515109869525372E+005	-2.4770650E-001
3	0	2.515409869572311E+005	-2.4769123E-001
3	0	2.515709869619249E+005	-2.4777141E-001
3	0	2.516009869666183E+005	-2.4785161E-001
3	0	2.516309869713122E+005	-2.4764922E-001
3	0	2.516609869760061E+005	-2.4775614E-001
3	0	2.516909869806999E+005	-2.4783634E-001
3	0	2.517209869853938E+005	-2.4806926E-001
3	0	2.517509869900877E+005	-2.4799289E-001
3	0	2.517809869947815E+005	-2.4786305E-001
3	0	2.518109869994754E+005	-2.4755377E-001
3	0	2.518409870041693E+005	-2.4742393E-001
3	0	2.518709870088631E+005	-2.4716045E-001
3	0	2.519009870135570E+005	-2.4718338E-001
3	0	2.519309870182509E+005	-2.4717955E-001
3	0	2.519609870229450E+005	-2.4710700E-001
3	0	2.519909870276388E+005	-2.4702682E-001
3	0	2.520209870323327E+005	-2.4705736E-001
3	0	2.520509870370266E+005	-2.4721773E-001
3	0	2.520809870417204E+005	-2.4696571E-001
3	0	2.521109870464143E+005	-2.4693136E-001
3	0	2.521409870511082E+005	-2.4693134E-001
3	0	2.521709870558020E+005	-2.4691989E-001
3	0	2.522009870604959E+005	-2.4711083E-001
3	0	2.522309870651898E+005	-2.4716809E-001
3	0	2.522609870698834E+005	-2.4727502E-001
3	0	2.522909870745773E+005	-2.4704972E-001
3	0	2.523209870792711E+005	-2.4703446E-001
3	0	2.523509870839650E+005	-2.4696572E-001
3	0	2.523809870886588E+005	-2.4679008E-001
3	0	2.524109870933527E+005	-2.4682824E-001
3	0	2.524409870980466E+005	-2.4721012E-001
3	0	2.524709871027404E+005	-2.4669078E-001
3	0	2.525009871074343E+005	-2.4704590E-001
3	0	2.525309871121282E+005	-2.4701536E-001
3	0	2.525609871168220E+005	-2.4679770E-001
3	0	2.525909871215159E+005	-2.4725592E-001
3	0	2.526209871262098E+005	-2.4723300E-001
3	0	2.526509871309034E+005	-2.4693136E-001
3	0	2.526809871355973E+005	-2.4676716E-001
3	0	2.527109871402911E+005	-2.4675953E-001
3	0	2.527409871449850E+005	-2.4676715E-001
3	0	2.527709871496789E+005	-2.4645405E-001
3	0	2.528009871543727E+005	-2.4683207E-001
3	0	2.528309871590666E+005	-2.4690844E-001
3	0	2.528609871637600E+005	-2.4683207E-001
3	0	2.528909871684539E+005	-2.4676333E-001
3	0	2.529209871731477E+005	-2.4668697E-001
3	0	2.529509871778416E+005	-2.4670224E-001
3	0	2.529809871825355E+005	-2.4679388E-001
3	0	2.530109871872293E+005	-2.4675189E-001
3	0	2.530409871919232E+005	-2.4674043E-001
3	0	2.530709871966171E+005	-2.4682061E-001
3	0	2.531009872013109E+005	-2.4684735E-001
3	0	2.531309872060048E+005	-2.4680535E-001
3	0	2.531609872106987E+005	-2.4675189E-001
3	0	2.531909872153925E+005	-2.4670607E-001
3	0	2.532209872200864E+005	-2.4669461E-001
3	0	2.532509872247805E+005	-2.4686643E-001
3	0	2.532809872294744E+005	-2.4667932E-001
3	0	2.533109872341682E+005	-2.4672516E-001
3	0	2.533409872388621E+005	-2.4679390E-001
3	0	2.533709872435560E+005	-2.4653423E-001
3	0	2.534009872482498E+005	-2.4649987E-001
3	0	2.534309872529437E+005	-2.4661060E-001
3	0	2.534609872576375E+005	-2.4661061E-001
3	0	2.534909872623314E+005	-2.4652660E-001
3	0	2.535209872670253E+005	-2.4655715E-001
3	0	2.535509872717189E+005	-2.4651514E-001
3	0	2.535809872764128E+005	-2.4665643E-001
3	0	2.536109872811066E+005	-2.4699627E-001
3	0	2.536409872858005E+005	-2.4704209E-001
3	0	2.536709872904944E+005	-2.4712227E-001
3	0	2.537009872951882E+005	-2.4698099E-001
3	0	2.537309872998821E+005	-2.4714136E-001
3	0	2.537609873045760E+005	-2.4752703E-001
3	0	2.537909873092698E+005	-2.4661060E-001
3	0	2.538209873139637E+005	-2.4639295E-001
3	0	2.538509873186576E+005	-2.4654187E-001
3	0	2.538809873233514E+005	-2.4612565E-001
3	0	2.539109873280453E+005	-2.4601109E-001
3	0	2.539409873327389E+005	-2.4617147E-001
3	0	2.539709873374328E+005	-2.4664879E-001
3	0	2.540009873421267E+005	-2.4628220E-001
3	0	2.540309873468205E+005	-2.4656859E-001
3	0	2.540609873515144E+005	-2.4646932E-001
3	0	2.540909873562083E+005	-2.4620204E-001
3	0	2.541209873609021E+005	-2.4627839E-001
3	0	2.541509873655955E+005	-2.4646932E-001
3	0	2.541809873702894E+005	-2.4650368E-001
3	0	2.542109873749833E+005	-2.4691226E-001
3	0	2.542409873796771E+005	-2.4664879E-001
3	0	2.542709873843710E+005	-2.4672133E-001
3	0	2.543009873890649E+005	-2.4688171E-001
3	0	2.543309873937587E+005	-2.4690844E-001
3	0	2.543609873984526E+005	-2.4674043E-001
3	0	2.543909874031465E+005	-2.4760722E-001
3	0	2.544209874078403E+005	-2.4701536E-001
3	0	2.544509874125342E+005	-2.4695808E-001
3	0	2.544809874172281E+005	-2.4697335E-001
3	0	2.545032992207198E+005	-2.4732466E-001