EC-Lab ASCII FILE
Nb header lines : 57                          

Chronopotentiometry

Run on channel : 4 (SN 13148)
User : 
Electrode connection : standard
Potential control : Ewe
Ewe ctrl range : min = -1.00 V, max = 1.00 V
Ewe,I filtering : 5 Hz
Safety Limits :
	Do not start on E overload
Channel : Floating
Acquisition started on : 06/24/2024 21:42:04.718
Loaded Setting File :  NONE
Saved on :
	File : 1540_A_08_CP_C04.mpr
	Directory : C:\Users\mAtsuhitA\Desktop\Oyafuso\20240624_???????4\
	Host : 192.109.209.100
Device : VSP-300 (SN 0960)
Address : USB
EC-Lab for windows v11.50 (software)
Internet server v11.50 (firmware)
Command interpretor v11.50 (firmware)
Electrode material : 
Initial state : 
Electrolyte : 
Comments : 
Cable : standard
Electrode surface area : 0.001 cm2
Characteristic mass : 0.001 g
Equivalent Weight : 0.000 g/eq.
Density : 0.000 g/cm3
Volume (V) : 0.001 cm3
Text export
   Mode : Standard
   Time format : Elapsed
Cycle Definition : Charge/Discharge alternance
Is                  200.000             
unit Is             nA                  
vs.                 <None>              
ts (h:m:s)          1000:40:0.0000      
EM (V)              0.000               
dQM                 200.133             
unit dQM            uA.h                
record              Ewe                 
dEs (mV)            10.00               
dts (s)             10.0000             
E range min (V)     -1.000              
E range max (V)     1.000               
I Range             1 uA                
Bandwidth           8                   
goto Ns'            0                   
nc cycles           0                   

mode	ox/red	error	control changes	Ns changes	counter inc.	Ns	time/s	control/mA	Ewe/V	I/mA	dQ/C	(Q-Qo)/C	half cycle	Q charge/discharge/mA.h	I Range	Energy charge/W.h	Energy discharge/W.h	Capacitance charge/uF	Capacitance discharge/uF	step time/s	Q discharge/mA.h	Q charge/mA.h	Capacity/mA.h	Efficiency/%	cycle number	P/W	
1	1	0	0	0	0	0	4.911336977983464E+004	1.9999999E-004	-3.9139742E-001	-5.8500655E-007	0.0000000E+000	0.0000000E+000	0	0.000000000000000E+000	43	0.000000000000000E+000	0.000000000000000E+000	0.000000000000000E+000	0.000000000000000E+000	4.911336977983464E+004	0.000000000000000E+000	0.000000000000000E+000	0.000000000000000E+000	0.0000000E+000	0.000000000000000E+000	2.2897005E-010
1	1	0	0	0	0	0	4.911392157983570E+004	1.9999999E-004	-3.8136646E-001	1.9960360E-004	9.3596647E-008	9.3596647E-008	0	2.599906875999381E-008	43	9.915172855695108E-012	0.000000000000000E+000	0.000000000000000E+000	0.000000000000000E+000	4.911392157983570E+004	0.000000000000000E+000	2.599906875999381E-008	2.599906875999381E-008	0.0000000E+000	0.000000000000000E+000	-7.6122120E-008
1	1	0	0	0	0	0	4.911514737983793E+004	1.9999999E-004	-3.7135512E-001	1.9981370E-004	3.3842281E-007	3.3842281E-007	0	9.400633665595690E-008	43	3.517001973902536E-011	0.000000000000000E+000	3.380393013681354E+001	0.000000000000000E+000	4.911514737983793E+004	0.000000000000000E+000	9.400633665595690E-008	9.400633665595690E-008	0.0000000E+000	0.000000000000000E+000	-7.4201843E-008
1	1	0	0	0	0	0	4.911815137984348E+004	1.9999999E-004	-3.6135191E-001	1.9981370E-004	9.3859347E-007	9.3859347E-007	0	2.607204014247707E-007	43	9.541246500918065E-011	0.000000000000000E+000	4.689554575310444E+001	0.000000000000000E+000	4.911815137984348E+004	0.000000000000000E+000	2.607204014247707E-007	2.607204014247707E-007	0.0000000E+000	0.000000000000000E+000	-7.2203065E-008
1	1	0	0	0	0	0	4.912738317986071E+004	1.9999999E-004	-3.5134488E-001	1.9982515E-004	2.7832266E-006	2.7832266E-006	0	7.731185125154556E-007	43	2.754409196261999E-010	0.000000000000000E+000	9.270753983156678E+001	0.000000000000000E+000	4.912738317986071E+004	0.000000000000000E+000	7.731185125154556E-007	7.731185125154556E-007	0.0000000E+000	0.000000000000000E+000	-7.0207548E-008
1	1	0	0	0	0	0	4.913738317987934E+004	1.9999999E-004	-3.4620583E-001	1.9982134E-004	4.7814997E-006	4.7814997E-006	0	1.328194386514617E-006	43	4.676114236156883E-010	0.000000000000000E+000	1.359901589770351E+002	0.000000000000000E+000	4.913738317987934E+004	0.000000000000000E+000	1.328194386514617E-006	1.328194386514617E-006	0.0000000E+000	0.000000000000000E+000	-6.9179315E-008
1	1	0	0	0	0	0	4.914738317989797E+004	1.9999999E-004	-3.4261310E-001	1.9980605E-004	6.7797810E-006	6.7797810E-006	0	1.883272504915491E-006	43	6.577884590613401E-010	0.000000000000000E+000	1.749469188863922E+002	0.000000000000000E+000	4.914738317989797E+004	0.000000000000000E+000	1.883272504915491E-006	1.883272504915491E-006	0.0000000E+000	0.000000000000000E+000	-6.8456167E-008
1	1	0	0	0	0	0	4.915738317991659E+004	1.9999999E-004	-3.3975339E-001	1.9982898E-004	8.7780209E-006	8.7780209E-006	0	2.438339018959469E-006	43	8.463741885272005E-010	0.000000000000000E+000	2.109438215750020E+002	0.000000000000000E+000	4.915738317991659E+004	0.000000000000000E+000	2.438339018959469E-006	2.438339018959469E-006	0.0000000E+000	0.000000000000000E+000	-6.7892572E-008
1	1	0	0	0	0	0	4.916738317993522E+004	1.9999999E-004	-3.3731368E-001	1.9979841E-004	1.0776322E-005	1.0776322E-005	0	2.993422811334793E-006	43	1.033611546263529E-009	0.000000000000000E+000	2.446229772655139E+002	0.000000000000000E+000	4.916738317993522E+004	0.000000000000000E+000	2.993422811334793E-006	2.993422811334793E-006	0.0000000E+000	0.000000000000000E+000	-6.7394737E-008
1	1	0	0	0	0	0	4.917738317995385E+004	1.9999999E-004	-3.3516797E-001	1.9982898E-004	1.2774540E-005	1.2774540E-005	0	3.548483185781834E-006	43	1.219650007544302E-009	0.000000000000000E+000	2.765142371630716E+002	0.000000000000000E+000	4.917738317995385E+004	0.000000000000000E+000	3.548483185781834E-006	3.548483185781834E-006	0.0000000E+000	0.000000000000000E+000	-6.6976277E-008
1	1	0	0	0	0	0	4.918738317997247E+004	1.9999999E-004	-3.3322075E-001	1.9985953E-004	1.4772727E-005	1.4772727E-005	0	4.103535221910306E-006	43	1.404604863363934E-009	0.000000000000000E+000	3.068337005014536E+002	0.000000000000000E+000	4.918738317997247E+004	0.000000000000000E+000	4.103535221910306E-006	4.103535221910306E-006	0.0000000E+000	0.000000000000000E+000	-6.6597337E-008
1	1	0	0	0	0	0	4.919738317999110E+004	1.9999999E-004	-3.3137286E-001	1.9980605E-004	1.6770857E-005	1.6770857E-005	0	4.658571159115101E-006	43	1.588528707665228E-009	0.000000000000000E+000	3.354600326749634E+002	0.000000000000000E+000	4.919738317999110E+004	0.000000000000000E+000	4.658571159115101E-006	4.658571159115101E-006	0.0000000E+000	0.000000000000000E+000	-6.6210298E-008
1	1	0	0	0	0	0	4.920738318000973E+004	1.9999999E-004	-3.2967383E-001	1.9979842E-004	1.8768938E-005	1.8768938E-005	0	5.213593764097696E-006	43	1.771505133751784E-009	0.000000000000000E+000	3.630872679592905E+002	0.000000000000000E+000	4.920738318000973E+004	0.000000000000000E+000	5.213593764097696E-006	5.213593764097696E-006	0.0000000E+000	0.000000000000000E+000	-6.5868313E-008
1	1	0	0	0	0	0	4.921738318002835E+004	1.9999999E-004	-3.2804736E-001	1.9979459E-004	2.0767075E-005	2.0767075E-005	0	5.768631944748626E-006	43	1.953583946361063E-009	0.000000000000000E+000	3.894866255973108E+002	0.000000000000000E+000	4.921738318002835E+004	0.000000000000000E+000	5.768631944748626E-006	5.768631944748626E-006	0.0000000E+000	0.000000000000000E+000	-6.5542089E-008
1	1	0	0	0	0	0	4.922738318004698E+004	1.9999999E-004	-3.2648960E-001	1.9981370E-004	2.2765189E-005	2.2765189E-005	0	6.323663457019974E-006	43	2.134795961435085E-009	0.000000000000000E+000	4.148412792563667E+002	0.000000000000000E+000	4.922738318004698E+004	0.000000000000000E+000	6.323663457019974E-006	6.323663457019974E-006	0.0000000E+000	0.000000000000000E+000	-6.5237096E-008
1	1	0	0	0	0	0	4.923738318006560E+004	1.9999999E-004	-3.2498148E-001	1.9983279E-004	2.4763354E-005	2.4763354E-005	0	6.878709596094748E-006	43	2.315175677644391E-009	0.000000000000000E+000	4.391835245473075E+002	0.000000000000000E+000	4.923738318006560E+004	0.000000000000000E+000	6.878709596094748E-006	6.878709596094748E-006	0.0000000E+000	0.000000000000000E+000	-6.4941958E-008
1	1	0	0	0	0	0	4.924738318008423E+004	1.9999999E-004	-3.2353827E-001	1.9980989E-004	2.6761401E-005	2.6761401E-005	0	7.433722475051783E-006	43	2.494743586312887E-009	0.000000000000000E+000	4.627743296537959E+002	0.000000000000000E+000	4.924738318008423E+004	0.000000000000000E+000	7.433722475051783E-006	7.433722475051783E-006	0.0000000E+000	0.000000000000000E+000	-6.4646144E-008
1	1	0	0	0	0	0	4.925738318010286E+004	1.9999999E-004	-3.2212943E-001	1.9979842E-004	2.8759379E-005	2.8759379E-005	0	7.988716549226006E-006	43	2.673523510184629E-009	0.000000000000000E+000	4.854966236190722E+002	0.000000000000000E+000	4.925738318010286E+004	0.000000000000000E+000	7.988716549226006E-006	7.988716549226006E-006	0.0000000E+000	0.000000000000000E+000	-6.4360954E-008
1	1	0	0	0	0	0	4.926738318012148E+004	1.9999999E-004	-3.2080460E-001	1.9979459E-004	3.0757445E-005	3.0757445E-005	0	8.543734636566519E-006	43	2.851575863437327E-009	0.000000000000000E+000	5.078681840971801E+002	0.000000000000000E+000	4.926738318012148E+004	0.000000000000000E+000	8.543734636566519E-006	8.543734636566519E-006	0.0000000E+000	0.000000000000000E+000	-6.4095026E-008
1	1	0	0	0	0	0	4.927738318014011E+004	1.9999999E-004	-3.1942630E-001	1.9983281E-004	3.2755561E-005	3.2755561E-005	0	9.098766438816306E-006	43	3.028867617380770E-009	0.000000000000000E+000	5.288258440970810E+002	0.000000000000000E+000	4.927738318014011E+004	0.000000000000000E+000	9.098766438816306E-006	9.098766438816306E-006	0.0000000E+000	0.000000000000000E+000	-6.3831855E-008
1	1	0	0	0	0	0	4.928738318015874E+004	1.9999999E-004	-3.1815106E-001	1.9978314E-004	3.4753612E-005	3.4753612E-005	0	9.653781223480008E-006	43	3.205446157642563E-009	0.000000000000000E+000	5.497649274344578E+002	0.000000000000000E+000	4.928738318015874E+004	0.000000000000000E+000	9.653781223480008E-006	9.653781223480008E-006	0.0000000E+000	0.000000000000000E+000	-6.3561217E-008
1	1	0	0	0	0	0	4.929738318017736E+004	1.9999999E-004	-3.1686056E-001	1.9984425E-004	3.6751680E-005	3.6751680E-005	0	1.020880021112973E-005	43	3.381309782994198E-009	0.000000000000000E+000	5.697413408844322E+002	0.000000000000000E+000	4.929738318017736E+004	0.000000000000000E+000	1.020880021112973E-005	1.020880021112973E-005	0.0000000E+000	0.000000000000000E+000	-6.3322759E-008
1	1	0	0	0	0	0	4.930738318019599E+004	1.9999999E-004	-3.1556246E-001	1.9982133E-004	3.8749775E-005	3.8749775E-005	0	1.076382626559937E-005	43	3.556455168356310E-009	0.000000000000000E+000	5.888665097354024E+002	0.000000000000000E+000	4.930738318019599E+004	0.000000000000000E+000	1.076382626559937E-005	1.076382626559937E-005	0.0000000E+000	0.000000000000000E+000	-6.3056106E-008
1	1	0	0	0	0	0	4.931738318021462E+004	1.9999999E-004	-3.1427962E-001	1.9979842E-004	4.0747815E-005	4.0747815E-005	0	1.131883723679382E-005	43	3.730883803191967E-009	0.000000000000000E+000	6.073890293385379E+002	0.000000000000000E+000	4.931738318021462E+004	0.000000000000000E+000	1.131883723679382E-005	1.131883723679382E-005	0.0000000E+000	0.000000000000000E+000	-6.2792573E-008
1	1	0	0	0	0	0	4.932738318023324E+004	1.9999999E-004	-3.1306162E-001	1.9984425E-004	4.2745854E-005	4.2745854E-005	0	1.187384840969723E-005	43	3.904636502744055E-009	0.000000000000000E+000	6.258100642468912E+002	0.000000000000000E+000	4.932738318023324E+004	0.000000000000000E+000	1.187384840969723E-005	1.187384840969723E-005	0.0000000E+000	0.000000000000000E+000	-6.2563565E-008
1	1	0	0	0	0	0	4.933738318025187E+004	1.9999999E-004	-3.1184751E-001	1.9979078E-004	4.4743909E-005	4.4743909E-005	0	1.242886369951692E-005	43	4.077716637750497E-009	0.000000000000000E+000	6.436217322876723E+002	0.000000000000000E+000	4.933738318025187E+004	0.000000000000000E+000	1.242886369951692E-005	1.242886369951692E-005	0.0000000E+000	0.000000000000000E+000	-6.2304260E-008
1	1	0	0	0	0	0	4.934738318027050E+004	1.9999999E-004	-3.1057614E-001	1.9984043E-004	4.6741960E-005	4.6741960E-005	0	1.298387738115839E-005	43	4.250090645130628E-009	0.000000000000000E+000	6.602874256394384E+002	0.000000000000000E+000	4.934738318027050E+004	0.000000000000000E+000	1.298387738115839E-005	1.298387738115839E-005	0.0000000E+000	0.000000000000000E+000	-6.2065673E-008
1	1	0	0	0	0	0	4.935738318028912E+004	1.9999999E-004	-3.0937728E-001	1.9984043E-004	4.8740043E-005	4.8740043E-005	0	1.353890079795514E-005	43	4.421802281741713E-009	0.000000000000000E+000	6.770467976097568E+002	0.000000000000000E+000	4.935738318028912E+004	0.000000000000000E+000	1.353890079795514E-005	1.353890079795514E-005	0.0000000E+000	0.000000000000000E+000	-6.1826093E-008
1	1	0	0	0	0	0	4.936738318030775E+004	1.9999999E-004	-3.0811352E-001	1.9980987E-004	5.0738203E-005	5.0738203E-005	0	1.409394566964784E-005	43	4.592819108350950E-009	0.000000000000000E+000	6.926438742120051E+002	0.000000000000000E+000	4.936738318030775E+004	0.000000000000000E+000	1.409394566964784E-005	1.409394566964784E-005	0.0000000E+000	0.000000000000000E+000	-6.1564123E-008
1	1	0	0	0	0	0	4.937738318032637E+004	1.9999999E-004	-3.0694902E-001	1.9981751E-004	5.2736392E-005	5.2736392E-005	0	1.464899722131718E-005	43	4.763191637870103E-009	0.000000000000000E+000	7.086563112135611E+002	0.000000000000000E+000	4.937738318032637E+004	0.000000000000000E+000	1.464899722131718E-005	1.464899722131718E-005	0.0000000E+000	0.000000000000000E+000	-6.1333793E-008
1	1	0	0	0	0	0	4.938738318034500E+004	1.9999999E-004	-3.0563563E-001	1.9984806E-004	5.4734501E-005	5.4734501E-005	0	1.520402757328268E-005	43	4.932828689764097E-009	0.000000000000000E+000	7.227505489154595E+002	0.000000000000000E+000	4.938738318034500E+004	0.000000000000000E+000	1.520402757328268E-005	1.520402757328268E-005	0.0000000E+000	0.000000000000000E+000	-6.1080691E-008
1	1	0	0	0	0	0	4.939738318036363E+004	1.9999999E-004	-3.0444822E-001	1.9976786E-004	5.6732551E-005	5.6732551E-005	0	1.575904253743374E-005	43	5.101802006093430E-009	0.000000000000000E+000	7.375695273003333E+002	0.000000000000000E+000	4.939738318036363E+004	0.000000000000000E+000	1.575904253743374E-005	1.575904253743374E-005	0.0000000E+000	0.000000000000000E+000	-6.0818969E-008
1	1	0	0	0	0	0	4.940738318038225E+004	1.9999999E-004	-3.0320737E-001	1.9983279E-004	5.8730719E-005	5.8730719E-005	0	1.631408887172731E-005	43	5.270096144043146E-009	0.000000000000000E+000	7.514252921843459E+002	0.000000000000000E+000	4.940738318038225E+004	0.000000000000000E+000	1.631408887172731E-005	1.631408887172731E-005	0.0000000E+000	0.000000000000000E+000	-6.0590779E-008
1	1	0	0	0	0	0	4.941738318040088E+004	1.9999999E-004	-3.0200088E-001	1.9983662E-004	6.0728922E-005	6.0728922E-005	0	1.686914469170703E-005	43	5.437723490260131E-009	0.000000000000000E+000	7.651795641798574E+002	0.000000000000000E+000	4.941738318040088E+004	0.000000000000000E+000	1.686914469170703E-005	1.686914469170703E-005	0.0000000E+000	0.000000000000000E+000	-6.0350835E-008
1	1	0	0	0	0	0	4.942738318041951E+004	1.9999999E-004	-3.0071801E-001	1.9982134E-004	6.2727086E-005	6.2727086E-005	0	1.742419043394623E-005	43	5.604635741032151E-009	0.000000000000000E+000	7.777841232259099E+002	0.000000000000000E+000	4.942738318041951E+004	0.000000000000000E+000	1.742419043394623E-005	1.742419043394623E-005	0.0000000E+000	0.000000000000000E+000	-6.0089874E-008
1	1	0	0	0	0	0	4.943738318043813E+004	1.9999999E-004	-2.9946953E-001	1.9980223E-004	6.4725282E-005	6.4725282E-005	0	1.797924462857079E-005	43	5.770857560144178E-009	0.000000000000000E+000	7.903260833523512E+002	0.000000000000000E+000	4.943738318043813E+004	0.000000000000000E+000	1.797924462857079E-005	1.797924462857079E-005	0.0000000E+000	0.000000000000000E+000	-5.9834683E-008
1	1	0	0	0	0	0	4.944738318045676E+004	1.9999999E-004	-2.9824394E-001	1.9983281E-004	6.6723456E-005	6.6723456E-005	0	1.853429432793332E-005	43	5.936397769309355E-009	0.000000000000000E+000	8.027121683151431E+002	0.000000000000000E+000	4.944738318045676E+004	0.000000000000000E+000	1.853429432793332E-005	1.853429432793332E-005	0.0000000E+000	0.000000000000000E+000	-5.9598925E-008
1	1	0	0	0	0	0	4.945738318047539E+004	1.9999999E-004	-2.9698780E-001	1.9980605E-004	6.8721747E-005	6.8721747E-005	0	1.908937322759822E-005	43	6.101249431540978E-009	0.000000000000000E+000	8.144445982333892E+002	0.000000000000000E+000	4.945738318047539E+004	0.000000000000000E+000	1.908937322759822E-005	1.908937322759822E-005	0.0000000E+000	0.000000000000000E+000	-5.9339957E-008
1	1	0	0	0	0	0	4.946738318049401E+004	1.9999999E-004	-2.9567441E-001	1.9977932E-004	7.0720060E-005	7.0720060E-005	0	1.964446161056922E-005	43	6.265374863584738E-009	0.000000000000000E+000	8.252814979746590E+002	0.000000000000000E+000	4.946738318049401E+004	0.000000000000000E+000	1.964446161056922E-005	1.964446161056922E-005	0.0000000E+000	0.000000000000000E+000	-5.9069631E-008
1	1	0	0	0	0	0	4.947738318051264E+004	1.9999999E-004	-2.9441831E-001	1.9985571E-004	7.2718307E-005	7.2718307E-005	0	2.019952883888588E-005	43	6.428796816194817E-009	0.000000000000000E+000	8.363409515156718E+002	0.000000000000000E+000	4.947738318051264E+004	0.000000000000000E+000	2.019952883888588E-005	2.019952883888588E-005	0.0000000E+000	0.000000000000000E+000	-5.8841181E-008
1	1	0	0	0	0	0	4.948738318053127E+004	1.9999999E-004	-2.9310873E-001	1.9980987E-004	7.4716612E-005	7.4716612E-005	0	2.075461530571809E-005	43	6.591497506365405E-009	0.000000000000000E+000	8.465730434548204E+002	0.000000000000000E+000	4.948738318053127E+004	0.000000000000000E+000	2.075461530571809E-005	2.075461530571809E-005	0.0000000E+000	0.000000000000000E+000	-5.8566020E-008
1	1	0	0	0	0	0	4.949738318054989E+004	1.9999999E-004	-2.9172277E-001	1.9986717E-004	7.6714947E-005	7.6714947E-005	0	2.130970665225697E-005	43	6.753430294081785E-009	0.000000000000000E+000	8.557763129458152E+002	0.000000000000000E+000	4.949738318054989E+004	0.000000000000000E+000	2.130970665225697E-005	2.130970665225697E-005	0.0000000E+000	0.000000000000000E+000	-5.8305805E-008
1	1	0	0	0	0	0	4.950738318056852E+004	1.9999999E-004	-2.9046667E-001	1.9985953E-004	7.8713245E-005	7.8713245E-005	0	2.186479075803527E-005	43	6.914663723759817E-009	0.000000000000000E+000	8.659342573270773E+002	0.000000000000000E+000	4.950738318056852E+004	0.000000000000000E+000	2.186479075803527E-005	2.186479075803527E-005	0.0000000E+000	0.000000000000000E+000	-5.8052532E-008
1	1	0	0	0	0	0	4.951738318058715E+004	1.9999999E-004	-2.8911126E-001	1.9981751E-004	8.0711550E-005	8.0711550E-005	0	2.241987573235353E-005	43	7.075145038204429E-009	0.000000000000000E+000	8.748726178643435E+002	0.000000000000000E+000	4.951738318058715E+004	0.000000000000000E+000	2.241987573235353E-005	2.241987573235353E-005	0.0000000E+000	0.000000000000000E+000	-5.7769494E-008
1	1	0	0	0	0	0	4.952738318060577E+004	1.9999999E-004	-2.8771386E-001	1.9985571E-004	8.2709783E-005	8.2709783E-005	0	2.297494000979400E-005	43	7.234844721519920E-009	0.000000000000000E+000	8.831551791099215E+002	0.000000000000000E+000	4.952738318060577E+004	0.000000000000000E+000	2.297494000979400E-005	2.297494000979400E-005	0.0000000E+000	0.000000000000000E+000	-5.7501257E-008
1	1	0	0	0	0	0	4.953738318062440E+004	1.9999999E-004	-2.8632027E-001	1.9982515E-004	8.4708154E-005	8.4708154E-005	0	2.353004355274495E-005	43	7.393782117320340E-009	0.000000000000000E+000	8.912314596108041E+002	0.000000000000000E+000	4.953738318062440E+004	0.000000000000000E+000	2.353004355274495E-005	2.353004355274495E-005	0.0000000E+000	0.000000000000000E+000	-5.7213992E-008
1	1	0	0	0	0	0	4.954738318064302E+004	1.9999999E-004	-2.8488854E-001	1.9989393E-004	8.6706583E-005	8.6706583E-005	0	2.408516143775068E-005	43	7.551928838741592E-009	0.000000000000000E+000	8.987193752063624E+002	0.000000000000000E+000	4.954738318064302E+004	0.000000000000000E+000	2.408516143775068E-005	2.408516143775068E-005	0.0000000E+000	0.000000000000000E+000	-5.6947489E-008
1	1	0	0	0	0	0	4.955738318066165E+004	1.9999999E-004	-2.8345677E-001	1.9978314E-004	8.8704954E-005	8.8704954E-005	0	2.464026511992708E-005	43	7.709276736930728E-009	0.000000000000000E+000	9.059875011697044E+002	0.000000000000000E+000	4.955738318066165E+004	0.000000000000000E+000	2.464026511992708E-005	2.464026511992708E-005	0.0000000E+000	0.000000000000000E+000	-5.6629883E-008
1	1	0	0	0	0	0	4.956738318068028E+004	1.9999999E-004	-2.8194866E-001	1.9980223E-004	9.0703266E-005	9.0703266E-005	0	2.519535154005734E-005	43	7.865782606963566E-009	0.000000000000000E+000	9.123442720485750E+002	0.000000000000000E+000	4.956738318068028E+004	0.000000000000000E+000	2.519535154005734E-005	2.519535154005734E-005	0.0000000E+000	0.000000000000000E+000	-5.6333970E-008
1	1	0	0	0	0	0	4.957738318069890E+004	1.9999999E-004	-2.8042144E-001	1.9987482E-004	9.2701674E-005	9.2701674E-005	0	2.575046482605638E-005	43	8.021448271673380E-009	0.000000000000000E+000	9.183382018785343E+002	0.000000000000000E+000	4.957738318069890E+004	0.000000000000000E+000	2.575046482605638E-005	2.575046482605638E-005	0.0000000E+000	0.000000000000000E+000	-5.6049185E-008
1	1	0	0	0	0	0	4.958738318071753E+004	1.9999999E-004	-2.7883315E-001	1.9981370E-004	9.4700103E-005	9.4700103E-005	0	2.630558442618642E-005	43	8.176234018883806E-009	0.000000000000000E+000	9.236032985991158E+002	0.000000000000000E+000	4.958738318071753E+004	0.000000000000000E+000	2.630558442618642E-005	2.630558442618642E-005	0.0000000E+000	0.000000000000000E+000	-5.5714683E-008
1	1	0	0	0	0	0	4.959738318073616E+004	1.9999999E-004	-2.7726015E-001	1.9989011E-004	9.6698539E-005	9.6698539E-005	0	2.686070537330235E-005	43	8.330146938439420E-009	0.000000000000000E+000	9.288441988080452E+002	0.000000000000000E+000	4.959738318073616E+004	0.000000000000000E+000	2.686070537330235E-005	2.686070537330235E-005	0.0000000E+000	0.000000000000000E+000	-5.5421562E-008
1	1	0	0	0	0	0	4.960738318075478E+004	1.9999999E-004	-2.7556875E-001	1.9982134E-004	9.8696917E-005	9.8696917E-005	0	2.741580993281938E-005	43	8.483116409957099E-009	0.000000000000000E+000	9.328833071312939E+002	0.000000000000000E+000	4.960738318075478E+004	0.000000000000000E+000	2.741580993281938E-005	2.741580993281938E-005	0.0000000E+000	0.000000000000000E+000	-5.5064518E-008
1	1	0	0	0	0	0	4.961738318077341E+004	1.9999999E-004	-2.7383921E-001	1.9983279E-004	1.0069522E-004	1.0069522E-004	0	2.797089397730664E-005	43	8.635120183687138E-009	0.000000000000000E+000	9.364622706181686E+002	0.000000000000000E+000	4.961738318077341E+004	0.000000000000000E+000	2.797089397730664E-005	2.797089397730664E-005	0.0000000E+000	0.000000000000000E+000	-5.4722054E-008
1	1	0	0	0	0	0	4.962738318079204E+004	1.9999999E-004	-2.7218983E-001	1.9985190E-004	1.0269358E-004	1.0269358E-004	0	2.852599318134869E-005	43	8.786212539322209E-009	0.000000000000000E+000	9.406186108844619E+002	0.000000000000000E+000	4.962738318079204E+004	0.000000000000000E+000	2.852599318134869E-005	2.852599318134869E-005	0.0000000E+000	0.000000000000000E+000	-5.4397653E-008
1	1	0	0	0	0	0	4.963738318081066E+004	1.9999999E-004	-2.7034572E-001	1.9982515E-004	1.0469185E-004	1.0469185E-004	0	2.908106913889686E-005	43	8.936274947426117E-009	0.000000000000000E+000	9.429935818517604E+002	0.000000000000000E+000	4.963738318081066E+004	0.000000000000000E+000	2.908106913889686E-005	2.908106913889686E-005	0.0000000E+000	0.000000000000000E+000	-5.4021875E-008
1	1	0	0	0	0	0	4.964738318082929E+004	1.9999999E-004	-2.6852068E-001	1.9983279E-004	1.0669015E-004	1.0669015E-004	0	2.963615107030455E-005	43	9.085325926796509E-009	0.000000000000000E+000	9.454509092330020E+002	0.000000000000000E+000	4.964738318082929E+004	0.000000000000000E+000	2.963615107030455E-005	2.963615107030455E-005	0.0000000E+000	0.000000000000000E+000	-5.3659239E-008
1	1	0	0	0	0	0	4.965738318084792E+004	1.9999999E-004	-2.6661170E-001	1.9982133E-004	1.0868839E-004	1.0868839E-004	0	3.019121736541658E-005	43	9.233313092734450E-009	0.000000000000000E+000	9.471361067619824E+002	0.000000000000000E+000	4.965738318084792E+004	0.000000000000000E+000	3.019121736541658E-005	3.019121736541658E-005	0.0000000E+000	0.000000000000000E+000	-5.3274704E-008
1	1	0	0	0	0	0	4.966738318086654E+004	1.9999999E-004	-2.6462632E-001	1.9987482E-004	1.1068652E-004	1.1068652E-004	0	3.074625429107800E-005	43	9.380190474154617E-009	0.000000000000000E+000	9.481444683142934E+002	0.000000000000000E+000	4.966738318086654E+004	0.000000000000000E+000	3.074625429107800E-005	3.074625429107800E-005	0.0000000E+000	0.000000000000000E+000	-5.2892140E-008
1	1	0	0	0	0	0	4.967738318088517E+004	1.9999999E-004	-2.6261041E-001	1.9984043E-004	1.1268469E-004	1.1268469E-004	0	3.130130319291068E-005	43	9.525952091439089E-009	0.000000000000000E+000	9.488753285472505E+002	0.000000000000000E+000	4.967738318088517E+004	0.000000000000000E+000	3.130130319291068E-005	3.130130319291068E-005	0.0000000E+000	0.000000000000000E+000	-5.2480178E-008
1	1	0	0	0	0	0	4.968738318090379E+004	1.9999999E-004	-2.6055250E-001	1.9981751E-004	1.1468288E-004	1.1468288E-004	0	3.185635456544353E-005	43	9.670572111804225E-009	0.000000000000000E+000	9.492518160350107E+002	0.000000000000000E+000	4.968738318090379E+004	0.000000000000000E+000	3.185635456544353E-005	3.185635456544353E-005	0.0000000E+000	0.000000000000000E+000	-5.2062951E-008
1	1	0	0	0	0	0	4.969738318092242E+004	1.9999999E-004	-2.5828078E-001	1.9976786E-004	1.1668101E-004	1.1668101E-004	0	3.241139112054447E-005	43	9.813927388344234E-009	0.000000000000000E+000	9.479657608144578E+002	0.000000000000000E+000	4.969738318092242E+004	0.000000000000000E+000	3.241139112054447E-005	3.241139112054447E-005	0.0000000E+000	0.000000000000000E+000	-5.1596199E-008
1	1	0	0	0	0	0	4.970738318094105E+004	1.9999999E-004	-2.5599763E-001	1.9981751E-004	1.1867909E-004	1.1867909E-004	0	3.296641384984165E-005	43	9.956011890515721E-009	0.000000000000000E+000	9.466394996791132E+002	0.000000000000000E+000	4.970738318094105E+004	0.000000000000000E+000	3.296641384984165E-005	3.296641384984165E-005	0.0000000E+000	0.000000000000000E+000	-5.1152810E-008
1	1	0	0	0	0	0	4.971738318095967E+004	1.9999999E-004	-2.5361899E-001	1.9984425E-004	1.2067725E-004	1.2067725E-004	0	3.352145794366334E-005	43	1.009678161045109E-008	0.000000000000000E+000	9.446546599625336E+002	0.000000000000000E+000	4.971738318095967E+004	0.000000000000000E+000	3.352145794366334E-005	3.352145794366334E-005	0.0000000E+000	0.000000000000000E+000	-5.0684296E-008
1	1	0	0	0	0	0	4.972738318097830E+004	1.9999999E-004	-2.5111055E-001	1.9984425E-004	1.2267542E-004	1.2267542E-004	0	3.407650865727252E-005	43	1.023616070250008E-008	0.000000000000000E+000	9.418032031150202E+002	0.000000000000000E+000	4.972738318097830E+004	0.000000000000000E+000	3.407650865727252E-005	3.407650865727252E-005	0.0000000E+000	0.000000000000000E+000	-5.0183001E-008
1	1	0	0	0	0	0	4.973738318099693E+004	1.9999999E-004	-2.4852574E-001	1.9982898E-004	1.2467352E-004	1.2467352E-004	0	3.463153487484164E-005	43	1.037409900322827E-008	0.000000000000000E+000	9.385188737476955E+002	0.000000000000000E+000	4.973738318099693E+004	0.000000000000000E+000	3.463153487484164E-005	3.463153487484164E-005	0.0000000E+000	0.000000000000000E+000	-4.9662646E-008
1	1	0	0	0	0	0	4.974738318101555E+004	1.9999999E-004	-2.4583407E-001	1.9986717E-004	1.2667160E-004	1.2667160E-004	0	3.518655546412931E-005	43	1.051054197221905E-008	0.000000000000000E+000	9.346223134130137E+002	0.000000000000000E+000	4.974738318101555E+004	0.000000000000000E+000	3.518655546412931E-005	3.518655546412931E-005	0.0000000E+000	0.000000000000000E+000	-4.9134158E-008
1	1	0	0	0	0	0	4.975738318103418E+004	1.9999999E-004	-2.4300490E-001	1.9980605E-004	1.2866961E-004	1.2866961E-004	0	3.574155685531857E-005	43	1.064541003155936E-008	0.000000000000000E+000	9.299519768582953E+002	0.000000000000000E+000	4.975738318103418E+004	0.000000000000000E+000	3.574155685531857E-005	3.574155685531857E-005	0.0000000E+000	0.000000000000000E+000	-4.8553851E-008
1	1	0	0	0	0	0	4.976738318105281E+004	1.9999999E-004	-2.4006884E-001	1.9988244E-004	1.3066764E-004	1.3066764E-004	0	3.629656725333249E-005	43	1.077865073288864E-008	0.000000000000000E+000	9.247688592441618E+002	0.000000000000000E+000	4.976738318105281E+004	0.000000000000000E+000	3.629656725333249E-005	3.629656725333249E-005	0.0000000E+000	0.000000000000000E+000	-4.7985548E-008
1	1	0	0	0	0	0	4.977738318107143E+004	1.9999999E-004	-2.3701826E-001	1.9984043E-004	1.3266572E-004	1.3266572E-004	0	3.685159108702383E-005	43	1.091020151475427E-008	0.000000000000000E+000	9.190673947587831E+002	0.000000000000000E+000	4.977738318107143E+004	0.000000000000000E+000	3.685159108702383E-005	3.685159108702383E-005	0.0000000E+000	0.000000000000000E+000	-4.7365830E-008
1	1	0	0	0	0	0	4.978738318109006E+004	1.9999999E-004	-2.3375005E-001	1.9976404E-004	1.3466379E-004	1.3466379E-004	0	3.740660645905215E-005	43	1.103993638310782E-008	0.000000000000000E+000	9.122547932313641E+002	0.000000000000000E+000	4.978738318109006E+004	0.000000000000000E+000	3.740660645905215E-005	3.740660645905215E-005	0.0000000E+000	0.000000000000000E+000	-4.6694851E-008
1	1	0	0	0	0	0	4.979738318110869E+004	1.9999999E-004	-2.3040164E-001	1.9982133E-004	1.3666184E-004	1.3666184E-004	0	3.796162214994284E-005	43	1.116781290583404E-008	0.000000000000000E+000	9.052561649498352E+002	0.000000000000000E+000	4.979738318110869E+004	0.000000000000000E+000	3.796162214994284E-005	3.796162214994284E-005	0.0000000E+000	0.000000000000000E+000	-4.6039162E-008
1	1	0	0	0	0	0	4.980738318112731E+004	1.9999999E-004	-2.2684324E-001	1.9980223E-004	1.3865992E-004	1.3865992E-004	0	3.851664427538000E-005	43	1.129371592186152E-008	0.000000000000000E+000	8.973403228742208E+002	0.000000000000000E+000	4.980738318112731E+004	0.000000000000000E+000	3.851664427538000E-005	3.851664427538000E-005	0.0000000E+000	0.000000000000000E+000	-4.5323787E-008
1	1	0	0	0	0	0	4.981738318114594E+004	1.9999999E-004	-2.2306342E-001	1.9981370E-004	1.4065806E-004	1.4065806E-004	0	3.907168273163047E-005	43	1.141752470049187E-008	0.000000000000000E+000	8.885366967402001E+002	0.000000000000000E+000	4.981738318114594E+004	0.000000000000000E+000	3.907168273163047E-005	3.907168273163047E-005	0.0000000E+000	0.000000000000000E+000	-4.4571127E-008
1	1	0	0	0	0	0	4.982738318116457E+004	1.9999999E-004	-2.1923776E-001	1.9980605E-004	1.4265625E-004	1.4265625E-004	0	3.962673530204706E-005	43	1.153921318255092E-008	0.000000000000000E+000	8.798950802554926E+002	0.000000000000000E+000	4.982738318116457E+004	0.000000000000000E+000	3.962673530204706E-005	3.962673530204706E-005	0.0000000E+000	0.000000000000000E+000	-4.3805031E-008
1	1	0	0	0	0	0	4.983738318118319E+004	1.9999999E-004	-2.1510667E-001	1.9982515E-004	1.4465458E-004	1.4465458E-004	0	4.018182658086456E-005	43	1.165861701691194E-008	0.000000000000000E+000	8.700514476113721E+002	0.000000000000000E+000	4.983738318118319E+004	0.000000000000000E+000	4.018182658086456E-005	4.018182658086456E-005	0.0000000E+000	0.000000000000000E+000	-4.2983721E-008
1	1	0	0	0	0	0	4.984738318120182E+004	1.9999999E-004	-2.1086104E-001	1.9979459E-004	1.4665288E-004	1.4665288E-004	0	4.073691061783413E-005	43	1.177566261542368E-008	0.000000000000000E+000	8.601068444806580E+002	0.000000000000000E+000	4.984738318120182E+004	0.000000000000000E+000	4.073691061783413E-005	4.073691061783413E-005	0.0000000E+000	0.000000000000000E+000	-4.2128896E-008
1	1	0	0	0	0	0	4.985738318122044E+004	1.9999999E-004	-2.0651233E-001	1.9983281E-004	1.4865116E-004	1.4865116E-004	0	4.129198750450511E-005	43	1.189029283770864E-008	0.000000000000000E+000	8.501438049897231E+002	0.000000000000000E+000	4.985738318122044E+004	0.000000000000000E+000	4.129198750450511E-005	4.129198750450511E-005	0.0000000E+000	0.000000000000000E+000	-4.1267938E-008
1	1	0	0	0	0	0	4.986738318123907E+004	1.9999999E-004	-2.0199180E-001	1.9981370E-004	1.5064936E-004	1.5064936E-004	0	4.184704312157858E-005	43	1.200240951895514E-008	0.000000000000000E+000	8.398586010978364E+002	0.000000000000000E+000	4.986738318123907E+004	0.000000000000000E+000	4.184704312157858E-005	4.184704312157858E-005	0.0000000E+000	0.000000000000000E+000	-4.0360728E-008
1	1	0	0	0	0	0	4.987738318125770E+004	1.9999999E-004	-1.9741017E-001	1.9979459E-004	1.5264742E-004	1.5264742E-004	0	4.240206371288251E-005	43	1.211197622616415E-008	0.000000000000000E+000	8.298026939355040E+002	0.000000000000000E+000	4.987738318125770E+004	0.000000000000000E+000	4.240206371288251E-005	4.240206371288251E-005	0.0000000E+000	0.000000000000000E+000	-3.9441485E-008
1	1	0	0	0	0	0	4.988738318127632E+004	1.9999999E-004	-1.9256130E-001	1.9981751E-004	1.5464553E-004	1.5464553E-004	0	4.295709405238752E-005	43	1.221885358910651E-008	0.000000000000000E+000	8.190747340159252E+002	0.000000000000000E+000	4.988738318127632E+004	0.000000000000000E+000	4.295709405238752E-005	4.295709405238752E-005	0.0000000E+000	0.000000000000000E+000	-3.8477118E-008
1	1	0	0	0	0	0	4.989738318129495E+004	1.9999999E-004	-1.8761696E-001	1.9980223E-004	1.5664373E-004	1.5664373E-004	0	4.351214500656170E-005	43	1.232299056133762E-008	0.000000000000000E+000	8.084858033859264E+002	0.000000000000000E+000	4.989738318129495E+004	0.000000000000000E+000	4.351214500656170E-005	4.351214500656170E-005	0.0000000E+000	0.000000000000000E+000	-3.7486288E-008
1	1	0	0	0	0	0	4.990738318131358E+004	1.9999999E-004	-1.8244737E-001	1.9984043E-004	1.5864195E-004	1.5864195E-004	0	4.406721021732806E-005	43	1.242426075136689E-008	0.000000000000000E+000	7.975200301682243E+002	0.000000000000000E+000	4.990738318131358E+004	0.000000000000000E+000	4.406721021732806E-005	4.406721021732806E-005	0.0000000E+000	0.000000000000000E+000	-3.6460364E-008
1	1	0	0	0	0	0	4.991738318133220E+004	1.9999999E-004	-1.7729688E-001	1.9983662E-004	1.6064024E-004	1.6064024E-004	0	4.462228776698511E-005	43	1.252267426736247E-008	0.000000000000000E+000	7.871836279260380E+002	0.000000000000000E+000	4.991738318133220E+004	0.000000000000000E+000	4.462228776698511E-005	4.462228776698511E-005	0.0000000E+000	0.000000000000000E+000	-3.5430407E-008
1	1	0	0	0	0	0	4.992738318135083E+004	1.9999999E-004	-1.7204329E-001	1.9983662E-004	1.6263845E-004	1.6263845E-004	0	4.517734527822318E-005	43	1.261816818979685E-008	0.000000000000000E+000	7.769729682110304E+002	0.000000000000000E+000	4.992738318135083E+004	0.000000000000000E+000	4.517734527822318E-005	4.517734527822318E-005	0.0000000E+000	0.000000000000000E+000	-3.4380552E-008
1	1	0	0	0	0	0	4.993738318136946E+004	1.9999999E-004	-1.6667897E-001	1.9984809E-004	1.6463659E-004	1.6463659E-004	0	4.573238411691819E-005	43	1.271068148901624E-008	0.000000000000000E+000	7.668661918529616E+002	0.000000000000000E+000	4.993738318136946E+004	0.000000000000000E+000	4.573238411691819E-005	4.573238411691819E-005	0.0000000E+000	0.000000000000000E+000	-3.3310471E-008
1	1	0	0	0	0	0	4.994738318138808E+004	1.9999999E-004	-1.6125357E-001	1.9981370E-004	1.6663475E-004	1.6663475E-004	0	4.628743088915164E-005	43	1.280018476339416E-008	0.000000000000000E+000	7.570422213668456E+002	0.000000000000000E+000	4.994738318138808E+004	0.000000000000000E+000	4.628743088915164E-005	4.628743088915164E-005	0.0000000E+000	0.000000000000000E+000	-3.2220672E-008
1	1	0	0	0	0	0	4.995738318140671E+004	1.9999999E-004	-1.5573272E-001	1.9982898E-004	1.6863296E-004	1.6863296E-004	0	4.684249074296188E-005	43	1.288662574479602E-008	0.000000000000000E+000	7.473747780670850E+002	0.000000000000000E+000	4.995738318140671E+004	0.000000000000000E+000	4.684249074296188E-005	4.684249074296188E-005	0.0000000E+000	0.000000000000000E+000	-3.1119910E-008
1	1	0	0	0	0	0	4.996738318142534E+004	1.9999999E-004	-1.5023860E-001	1.9982515E-004	1.7063122E-004	1.7063122E-004	0	4.739756121974541E-005	43	1.297001875799074E-008	0.000000000000000E+000	7.382546688575319E+002	0.000000000000000E+000	4.996738318142534E+004	0.000000000000000E+000	4.739756121974541E-005	4.739756121974541E-005	0.0000000E+000	0.000000000000000E+000	-3.0021454E-008
1	1	0	0	0	0	0	4.997738318144396E+004	1.9999999E-004	-1.4468722E-001	1.9982898E-004	1.7262950E-004	1.7262950E-004	0	4.795263850718503E-005	43	1.305033134784764E-008	0.000000000000000E+000	7.293816637734620E+002	0.000000000000000E+000	4.997738318144396E+004	0.000000000000000E+000	4.795263850718503E-005	4.795263850718503E-005	0.0000000E+000	0.000000000000000E+000	-2.8912700E-008
1	1	0	0	0	0	0	4.998738318146259E+004	1.9999999E-004	-1.3908237E-001	1.9982898E-004	1.7462770E-004	1.7462770E-004	0	4.850769352924120E-005	43	1.312752971701039E-008	0.000000000000000E+000	7.207559406415792E+002	0.000000000000000E+000	4.998738318146259E+004	0.000000000000000E+000	4.850769352924120E-005	4.850769352924120E-005	0.0000000E+000	0.000000000000000E+000	-2.7792689E-008
1	1	0	0	0	0	0	4.999738318148121E+004	1.9999999E-004	-1.3348515E-001	1.9981751E-004	1.7662584E-004	1.7662584E-004	0	4.906273362494196E-005	43	1.320161932928234E-008	0.000000000000000E+000	7.125419917048583E+002	0.000000000000000E+000	4.999738318148121E+004	0.000000000000000E+000	4.906273362494196E-005	4.906273362494196E-005	0.0000000E+000	0.000000000000000E+000	-2.6672671E-008
1	1	0	0	0	0	0	5.000738318149984E+004	1.9999999E-004	-1.2789176E-001	1.9980989E-004	1.7862412E-004	1.7862412E-004	0	4.961781208089795E-005	43	1.327260929219780E-008	0.000000000000000E+000	7.047019476609800E+002	0.000000000000000E+000	5.000738318149984E+004	0.000000000000000E+000	4.961781208089795E-005	4.961781208089795E-005	0.0000000E+000	0.000000000000000E+000	-2.5554039E-008
1	1	0	0	0	0	0	5.001738318151847E+004	1.9999999E-004	-1.2219147E-001	1.9984425E-004	1.8062232E-004	1.8062232E-004	0	5.017286508578218E-005	43	1.334043203692485E-008	0.000000000000000E+000	6.969125591369587E+002	0.000000000000000E+000	5.001738318151847E+004	0.000000000000000E+000	5.017286508578218E-005	5.017286508578218E-005	0.0000000E+000	0.000000000000000E+000	-2.4419263E-008
1	1	0	0	0	0	0	5.002738318153709E+004	1.9999999E-004	-1.1655608E-001	1.9979078E-004	1.8262029E-004	1.8262029E-004	0	5.072785989462681E-005	43	1.340512005526268E-008	0.000000000000000E+000	6.896266427743363E+002	0.000000000000000E+000	5.002738318153709E+004	0.000000000000000E+000	5.072785989462681E-005	5.072785989462681E-005	0.0000000E+000	0.000000000000000E+000	-2.3286830E-008
1	1	0	0	0	0	0	5.003738318155572E+004	1.9999999E-004	-1.1085960E-001	1.9981751E-004	1.8461830E-004	1.8461830E-004	0	5.128286135139913E-005	43	1.346664729625269E-008	0.000000000000000E+000	6.824902764628461E+002	0.000000000000000E+000	5.003738318155572E+004	0.000000000000000E+000	5.128286135139913E-005	5.128286135139913E-005	0.0000000E+000	0.000000000000000E+000	-2.2151690E-008
1	1	0	0	0	0	0	5.004738318157435E+004	1.9999999E-004	-1.0520131E-001	1.9977932E-004	1.8661637E-004	1.8661637E-004	0	5.183788032133351E-005	43	1.352503601974692E-008	0.000000000000000E+000	6.757419031711065E+002	0.000000000000000E+000	5.004738318157435E+004	0.000000000000000E+000	5.183788032133351E-005	5.183788032133351E-005	0.0000000E+000	0.000000000000000E+000	-2.1017046E-008
1	1	0	0	0	0	0	5.005738318159297E+004	1.9999999E-004	-9.9523917E-002	1.9976786E-004	1.8861431E-004	1.8861431E-004	0	5.239286613950208E-005	43	1.358027038216201E-008	0.000000000000000E+000	6.692187948129884E+002	0.000000000000000E+000	5.005738318159297E+004	0.000000000000000E+000	5.239286613950208E-005	5.239286613950208E-005	0.0000000E+000	0.000000000000000E+000	-1.9881680E-008
1	1	0	0	0	0	0	5.006738318161160E+004	1.9999999E-004	-9.3930528E-002	1.9982898E-004	1.9061226E-004	1.9061226E-004	0	5.294785034071599E-005	43	1.363240034097387E-008	0.000000000000000E+000	6.631469097377778E+002	0.000000000000000E+000	5.006738318161160E+004	0.000000000000000E+000	5.294785034071599E-005	5.294785034071599E-005	0.0000000E+000	0.000000000000000E+000	-1.8770042E-008
1	1	0	0	0	0	0	5.007738318163023E+004	1.9999999E-004	-8.8287503E-002	1.9979459E-004	1.9261018E-004	1.9261018E-004	0	5.350283016025848E-005	43	1.368139812319429E-008	0.000000000000000E+000	6.571955531775046E+002	0.000000000000000E+000	5.007738318163023E+004	0.000000000000000E+000	5.350283016025848E-005	5.350283016025848E-005	0.0000000E+000	0.000000000000000E+000	-1.7639366E-008
1	1	0	0	0	0	0	5.008738318164885E+004	1.9999999E-004	-8.2720838E-002	1.9978695E-004	1.9460829E-004	1.9460829E-004	0	5.405785872748250E-005	43	1.372731055165938E-008	0.000000000000000E+000	6.516361910838310E+002	0.000000000000000E+000	5.008738318164885E+004	0.000000000000000E+000	5.405785872748250E-005	5.405785872748250E-005	0.0000000E+000	0.000000000000000E+000	-1.6526544E-008
1	1	0	0	0	0	0	5.009738318166748E+004	1.9999999E-004	-7.7043451E-002	1.9979078E-004	1.9660643E-004	1.9660643E-004	0	5.461289634444479E-005	43	1.377007256530967E-008	0.000000000000000E+000	6.460452068079491E+002	0.000000000000000E+000	5.009738318166748E+004	0.000000000000000E+000	5.461289634444479E-005	5.461289634444479E-005	0.0000000E+000	0.000000000000000E+000	-1.5392571E-008
1	1	0	0	0	0	0	5.010738318168611E+004	1.9999999E-004	-7.1427152E-002	1.9979841E-004	1.9860445E-004	1.9860445E-004	0	5.516790190766329E-005	43	1.380971503179076E-008	0.000000000000000E+000	6.407849244686397E+002	0.000000000000000E+000	5.010738318168611E+004	0.000000000000000E+000	5.516790190766329E-005	5.516790190766329E-005	0.0000000E+000	0.000000000000000E+000	-1.4271031E-008
1	1	0	0	0	0	0	5.011738318170473E+004	1.9999999E-004	-6.5910116E-002	1.9979078E-004	2.0060240E-004	2.0060240E-004	0	5.572288807376814E-005	43	1.384629423428725E-008	0.000000000000000E+000	6.359117807905814E+002	0.000000000000000E+000	5.011738318170473E+004	0.000000000000000E+000	5.572288807376814E-005	5.572288807376814E-005	0.0000000E+000	0.000000000000000E+000	-1.3168234E-008
1	1	0	0	0	0	0	5.012738318172336E+004	1.9999999E-004	-6.0381636E-002	1.9979842E-004	2.0260038E-004	2.0260038E-004	0	5.627788353849913E-005	43	1.387980576843334E-008	0.000000000000000E+000	6.311836424751392E+002	0.000000000000000E+000	5.012738318172336E+004	0.000000000000000E+000	5.627788353849913E-005	5.627788353849913E-005	0.0000000E+000	0.000000000000000E+000	-1.2064156E-008
1	1	0	0	0	0	0	5.013738318174199E+004	1.9999999E-004	-5.4826424E-002	1.9976404E-004	2.0459837E-004	2.0459837E-004	0	5.683288276800380E-005	43	1.391023439124666E-008	0.000000000000000E+000	6.265644173005894E+002	0.000000000000000E+000	5.013738318174199E+004	0.000000000000000E+000	5.683288276800380E-005	5.683288276800380E-005	0.0000000E+000	0.000000000000000E+000	-1.0952347E-008
1	1	0	0	0	0	0	5.014738318176061E+004	1.9999999E-004	-4.9255941E-002	1.9978695E-004	2.0659645E-004	2.0659645E-004	0	5.738790221437294E-005	43	1.393757239638593E-008	0.000000000000000E+000	6.220713676068062E+002	0.000000000000000E+000	5.014738318176061E+004	0.000000000000000E+000	5.738790221437294E-005	5.738790221437294E-005	0.0000000E+000	0.000000000000000E+000	-9.8406945E-009
1	1	0	0	0	0	0	5.015738318177924E+004	1.9999999E-004	-4.3735087E-002	1.9979459E-004	2.0859446E-004	2.0859446E-004	0	5.794290687318830E-005	43	1.396184557337904E-008	0.000000000000000E+000	6.178171829917133E+002	0.000000000000000E+000	5.015738318177924E+004	0.000000000000000E+000	5.794290687318830E-005	5.794290687318830E-005	0.0000000E+000	0.000000000000000E+000	-8.7380343E-009
1	1	0	0	0	0	0	5.016738318179786E+004	1.9999999E-004	-3.8202789E-002	1.9984425E-004	2.1059249E-004	2.1059249E-004	0	5.849791410247983E-005	43	1.398304839727598E-008	0.000000000000000E+000	6.136794472314169E+002	0.000000000000000E+000	5.016738318179786E+004	0.000000000000000E+000	5.849791410247983E-005	5.849791410247983E-005	0.0000000E+000	0.000000000000000E+000	-7.6346076E-009
1	1	0	0	0	0	0	5.017738318181649E+004	1.9999999E-004	-3.2689575E-002	1.9980605E-004	2.1259053E-004	2.1259053E-004	0	5.905292341914335E-005	43	1.400119141601753E-008	0.000000000000000E+000	6.097063795272486E+002	0.000000000000000E+000	5.017738318181649E+004	0.000000000000000E+000	5.905292341914335E-005	5.905292341914335E-005	0.0000000E+000	0.000000000000000E+000	-6.5315748E-009
1	1	0	0	0	0	0	5.018738318183512E+004	1.9999999E-004	-2.7157271E-002	1.9979842E-004	2.1458857E-004	2.1458857E-004	0	5.960793415210355E-005	43	1.401626399305633E-008	0.000000000000000E+000	6.058243892282669E+002	0.000000000000000E+000	5.018738318183512E+004	0.000000000000000E+000	5.960793415210355E-005	5.960793415210355E-005	0.0000000E+000	0.000000000000000E+000	-5.4259801E-009
1	1	0	0	0	0	0	5.019738318185374E+004	1.9999999E-004	-2.1540971E-002	1.9977550E-004	2.1658650E-004	2.1658650E-004	0	6.016291642682094E-005	43	1.402821885040396E-008	0.000000000000000E+000	6.019209422594495E+002	0.000000000000000E+000	5.019738318185374E+004	0.000000000000000E+000	6.016291642682094E-005	6.016291642682094E-005	0.0000000E+000	0.000000000000000E+000	-4.3033586E-009
1	1	0	0	0	0	0	5.020738318187237E+004	1.9999999E-004	-1.5917037E-002	1.9976786E-004	2.1858432E-004	2.1858432E-004	0	6.071786791978068E-005	43	1.403705203367434E-008	0.000000000000000E+000	5.981246854687860E+002	0.000000000000000E+000	5.020738318187237E+004	0.000000000000000E+000	6.071786791978068E-005	6.071786791978068E-005	0.0000000E+000	0.000000000000000E+000	-3.1797125E-009
1	1	0	0	0	0	0	5.021738318189100E+004	1.9999999E-004	-1.0251103E-002	1.9978695E-004	2.2058214E-004	2.2058214E-004	0	6.127281639296578E-005	43	1.404274086761548E-008	0.000000000000000E+000	5.943762095586347E+002	0.000000000000000E+000	5.021738318189100E+004	0.000000000000000E+000	6.127281639296578E-005	6.127281639296578E-005	0.0000000E+000	0.000000000000000E+000	-2.0480366E-009
1	1	0	0	0	0	0	5.022738318190962E+004	1.9999999E-004	-4.5775333E-003	1.9978695E-004	2.2257990E-004	2.2257990E-004	0	6.182774993393589E-005	43	1.404528109440183E-008	0.000000000000000E+000	5.907283663920936E+002	0.000000000000000E+000	5.022738318190962E+004	0.000000000000000E+000	6.182774993393589E-005	6.182774993393589E-005	0.0000000E+000	0.000000000000000E+000	-9.1453145E-010
1	1	0	0	0	0	0	5.023526758192433E+004	1.9999999E-004	1.9356325E-005	1.9978695E-004	2.2415505E-004	2.2415505E-004	0	6.226529159100998E-005	43	1.404528956360018E-008	0.000000000000000E+000	5.877383159875312E+002	0.000000000000000E+000	5.023526758192433E+004	0.000000000000000E+000	6.226529159100998E-005	6.226529159100998E-005	0.0000000E+000	0.000000000000000E+000	3.8671410E-012
1	1	0	0	0	0	0	5.023526778192434E+004	1.9999999E-004	-7.9912032E-005	1.9979078E-004	2.2415508E-004	2.2415508E-004	0	6.226530269049787E-005	43	1.404528956448717E-008	0.000000000000000E+000	5.878913980350112E+002	0.000000000000000E+000	5.023526778192434E+004	0.000000000000000E+000	6.226530269049787E-005	6.226530269049787E-005	0.0000000E+000	0.000000000000000E+000	-1.5965687E-011