EC-Lab ASCII FILE
Nb header lines : 57                          

Chronopotentiometry

Run on channel : 4 (SN 13148)
User : 
Electrode connection : standard
Potential control : Ewe
Ewe ctrl range : min = -1.00 V, max = 1.00 V
Ewe,I filtering : 5 Hz
Safety Limits :
	Do not start on E overload
Channel : Floating
Acquisition started on : 06/24/2024 21:42:04.718
Loaded Setting File :  NONE
Saved on :
	File : 1540_A_12_CP_C04.mpr
	Directory : C:\Users\mAtsuhitA\Desktop\Oyafuso\20240624_???????4\
	Host : 192.109.209.100
Device : VSP-300 (SN 0960)
Address : USB
EC-Lab for windows v11.50 (software)
Internet server v11.50 (firmware)
Command interpretor v11.50 (firmware)
Electrode material : 
Initial state : 
Electrolyte : 
Comments : 
Cable : standard
Electrode surface area : 0.001 cm2
Characteristic mass : 0.001 g
Equivalent Weight : 0.000 g/eq.
Density : 0.000 g/cm3
Volume (V) : 0.001 cm3
Text export
   Mode : Standard
   Time format : Elapsed
Cycle Definition : Charge/Discharge alternance
Is                  200.000             
unit Is             nA                  
vs.                 <None>              
ts (h:m:s)          1000:40:0.0000      
EM (V)              0.000               
dQM                 200.133             
unit dQM            uA.h                
record              Ewe                 
dEs (mV)            10.00               
dts (s)             10.0000             
E range min (V)     -1.000              
E range max (V)     1.000               
I Range             1 uA                
Bandwidth           8                   
goto Ns'            0                   
nc cycles           0                   

mode	ox/red	error	control changes	Ns changes	counter inc.	Ns	time/s	control/mA	Ewe/V	I/mA	dQ/C	(Q-Qo)/C	half cycle	Q charge/discharge/mA.h	I Range	Energy charge/W.h	Energy discharge/W.h	Capacitance charge/uF	Capacitance discharge/uF	step time/s	Q discharge/mA.h	Q charge/mA.h	Capacity/mA.h	Efficiency/%	cycle number	P/W	
1	1	0	1	0	0	0	6.909633796823677E+004	1.9999999E-004	-3.7446159E-001	3.2030567E-007	0.0000000E+000	0.0000000E+000	0	0.000000000000000E+000	43	0.000000000000000E+000	0.000000000000000E+000	0.000000000000000E+000	0.000000000000000E+000	6.909633796823677E+004	0.000000000000000E+000	0.000000000000000E+000	0.000000000000000E+000	0.0000000E+000	0.000000000000000E+000	-1.1994217E-010
1	1	0	1	0	0	0	6.909683076811931E+004	1.9999999E-004	-3.6444780E-001	1.9960360E-004	8.1726846E-008	8.1726846E-008	0	2.270190135906900E-008	43	8.273658058462619E-012	0.000000000000000E+000	0.000000000000000E+000	0.000000000000000E+000	6.909683076811931E+004	0.000000000000000E+000	2.270190135906900E-008	2.270190135906900E-008	0.0000000E+000	0.000000000000000E+000	-7.2745095E-008
1	1	0	1	0	0	0	6.909781636788370E+004	1.9999999E-004	-3.5443747E-001	1.9978695E-004	2.7854796E-007	2.7854796E-007	0	7.737443063406128E-008	43	2.765165103703430E-011	0.000000000000000E+000	2.782604552220088E+001	0.000000000000000E+000	6.909781636788370E+004	0.000000000000000E+000	7.737443063406128E-008	7.737443063406128E-008	0.0000000E+000	0.000000000000000E+000	-7.0811986E-008
1	1	0	1	0	0	0	6.909971036743221E+004	1.9999999E-004	-3.4441900E-001	1.9975641E-004	6.5687391E-007	6.5687391E-007	0	1.824649807180000E-007	43	6.384683347258443E-011	0.000000000000000E+000	3.279646998590947E+001	0.000000000000000E+000	6.909971036743221E+004	0.000000000000000E+000	1.824649807180000E-007	1.824649807180000E-007	0.0000000E+000	0.000000000000000E+000	-6.8799906E-008
1	1	0	1	0	0	0	6.910375476646656E+004	1.9999999E-004	-3.3441582E-001	1.9981370E-004	1.4648482E-006	1.4648482E-006	0	4.069022730388478E-007	43	1.389022153455994E-010	0.000000000000000E+000	4.877627874080220E+001	0.000000000000000E+000	6.910375476646656E+004	0.000000000000000E+000	4.069022730388478E-007	4.069022730388478E-007	0.0000000E+000	0.000000000000000E+000	-6.6820860E-008
1	1	0	1	0	0	0	6.911163116460433E+004	1.9999999E-004	-3.2439733E-001	1.9983662E-004	3.0385261E-006	3.0385261E-006	0	8.440350217978632E-007	43	2.807069099383710E-010	0.000000000000000E+000	7.586741337548447E+001	0.000000000000000E+000	6.911163116460433E+004	0.000000000000000E+000	8.440350217978632E-007	8.440350217978632E-007	0.0000000E+000	0.000000000000000E+000	-6.4826466E-008
1	1	0	1	0	0	0	6.912163136225741E+004	1.9999999E-004	-3.1601679E-001	1.9984043E-004	5.0366125E-006	5.0366125E-006	0	1.399058988880149E-006	43	4.561038041931843E-010	0.000000000000000E+000	1.039956106290010E+002	0.000000000000000E+000	6.912163136225741E+004	0.000000000000000E+000	1.399058988880149E-006	1.399058988880149E-006	0.0000000E+000	0.000000000000000E+000	-6.3152932E-008
1	1	0	1	0	0	0	6.913163155991049E+004	1.9999999E-004	-3.0940402E-001	1.9978314E-004	7.0347555E-006	7.0347555E-006	0	1.954098784095992E-006	43	6.278353456180630E-010	0.000000000000000E+000	1.278029008594292E+002	0.000000000000000E+000	6.913163155991049E+004	0.000000000000000E+000	1.954098784095992E-006	1.954098784095992E-006	0.0000000E+000	0.000000000000000E+000	-6.1813708E-008
1	1	0	1	0	0	0	6.914163175753469E+004	1.9999999E-004	-3.0335245E-001	1.9981370E-004	9.0329586E-006	9.0329586E-006	0	2.509155086808012E-006	43	7.962130323604541E-010	0.000000000000000E+000	1.478501602208333E+002	0.000000000000000E+000	6.914163175753469E+004	0.000000000000000E+000	2.509155086808012E-006	2.509155086808012E-006	0.0000000E+000	0.000000000000000E+000	-6.0613978E-008
1	1	0	1	0	0	0	6.915163195515051E+004	1.9999999E-004	-2.9764834E-001	1.9978695E-004	1.1031186E-005	1.1031186E-005	0	3.064218152297889E-006	43	9.614266326561757E-010	0.000000000000000E+000	1.651388356156695E+002	0.000000000000000E+000	6.915163195515051E+004	0.000000000000000E+000	3.064218152297889E-006	3.064218152297889E-006	0.0000000E+000	0.000000000000000E+000	-5.9466256E-008
1	1	0	1	0	0	0	6.916163215277193E+004	1.9999999E-004	-2.9204729E-001	1.9984425E-004	1.3029400E-005	1.3029400E-005	0	3.619277720281843E-006	43	1.123530276381302E-009	0.000000000000000E+000	1.799628170716394E+002	0.000000000000000E+000	6.916163215277193E+004	0.000000000000000E+000	3.619277720281843E-006	3.619277720281843E-006	0.0000000E+000	0.000000000000000E+000	-5.8363970E-008
1	1	0	1	0	0	0	6.917163235042500E+004	1.9999999E-004	-2.8644627E-001	1.9982515E-004	1.5027580E-005	1.5027580E-005	0	4.174327748768267E-006	43	1.282522288551213E-009	0.000000000000000E+000	1.926575041847862E+002	0.000000000000000E+000	6.917163235042500E+004	0.000000000000000E+000	4.174327748768267E-006	4.174327748768267E-006	0.0000000E+000	0.000000000000000E+000	-5.7239170E-008
1	1	0	1	0	0	0	6.918163254807808E+004	1.9999999E-004	-2.8050926E-001	1.9978313E-004	1.7025790E-005	1.7025790E-005	0	4.729386072541628E-006	43	1.438221290028675E-009	0.000000000000000E+000	2.028363855062622E+002	0.000000000000000E+000	6.918163254807808E+004	0.000000000000000E+000	4.729386072541628E-006	4.729386072541628E-006	0.0000000E+000	0.000000000000000E+000	-5.6041017E-008
1	1	0	1	0	0	0	6.919163274571298E+004	1.9999999E-004	-2.7436227E-001	1.9978314E-004	1.9023855E-005	1.9023855E-005	0	5.284404035823829E-006	43	1.590497276140834E-009	0.000000000000000E+000	2.111754597093177E+002	0.000000000000000E+000	6.919163274571298E+004	0.000000000000000E+000	5.284404035823829E-006	5.284404035823829E-006	0.0000000E+000	0.000000000000000E+000	-5.4812954E-008
1	1	0	1	0	0	0	6.920163294332879E+004	1.9999999E-004	-2.6786017E-001	1.9979078E-004	2.1021828E-005	2.1021828E-005	0	5.839396713940661E-006	43	1.739157711569321E-009	0.000000000000000E+000	2.176451433586469E+002	0.000000000000000E+000	6.920163294332879E+004	0.000000000000000E+000	5.839396713940661E-006	5.839396713940661E-006	0.0000000E+000	0.000000000000000E+000	-5.3515993E-008
1	1	0	1	0	0	0	6.921163314094461E+004	1.9999999E-004	-2.6080832E-001	1.9979459E-004	2.3019855E-005	2.3019855E-005	0	6.394403970827473E-006	43	1.883908221189395E-009	0.000000000000000E+000	2.221147146654318E+002	0.000000000000000E+000	6.921163314094461E+004	0.000000000000000E+000	6.394403970827473E-006	6.394403970827473E-006	0.0000000E+000	0.000000000000000E+000	-5.2108092E-008
1	1	0	1	0	0	0	6.922163333859300E+004	1.9999999E-004	-2.5301576E-001	1.9982898E-004	2.5018002E-005	2.5018002E-005	0	6.949444900881695E-006	43	2.024342322054948E-009	0.000000000000000E+000	2.245135273827777E+002	0.000000000000000E+000	6.922163333859300E+004	0.000000000000000E+000	6.949444900881695E-006	6.949444900881695E-006	0.0000000E+000	0.000000000000000E+000	-5.0559880E-008
1	1	0	1	0	0	0	6.923163353624608E+004	1.9999999E-004	-2.4445575E-001	1.9979459E-004	2.7016193E-005	2.7016193E-005	0	7.504497738222451E-006	43	2.160028182337057E-009	0.000000000000000E+000	2.251498529244400E+002	0.000000000000000E+000	6.923163353624608E+004	0.000000000000000E+000	7.504497738222451E-006	7.504497738222451E-006	0.0000000E+000	0.000000000000000E+000	-4.8840938E-008
1	1	0	1	0	0	0	6.924163373389171E+004	1.9999999E-004	-2.3485345E-001	1.9982515E-004	2.9014314E-005	2.9014314E-005	0	8.059531686180435E-006	43	2.290379817930395E-009	0.000000000000000E+000	2.238856305608605E+002	0.000000000000000E+000	6.924163373389171E+004	0.000000000000000E+000	8.059531686180435E-006	8.059531686180435E-006	0.0000000E+000	0.000000000000000E+000	-4.6929625E-008
1	1	0	1	0	0	0	6.925090173168248E+004	1.9999999E-004	-2.2484261E-001	1.9983661E-004	3.0866115E-005	3.0866115E-005	0	8.573920751172864E-006	43	2.406036396817118E-009	0.000000000000000E+000	2.210957468474495E+002	0.000000000000000E+000	6.925090173168248E+004	0.000000000000000E+000	8.573920751172864E-006	8.573920751172864E-006	0.0000000E+000	0.000000000000000E+000	-4.4931785E-008
1	1	0	1	0	0	0	6.925941812965227E+004	1.9999999E-004	-2.1481650E-001	1.9979842E-004	3.2567837E-005	3.2567837E-005	0	9.046621600901290E-006	43	2.507580336906200E-009	0.000000000000000E+000	2.176539022395214E+002	0.000000000000000E+000	6.925941812965227E+004	0.000000000000000E+000	9.046621600901290E-006	9.046621600901290E-006	0.0000000E+000	0.000000000000000E+000	-4.2919996E-008
1	1	0	1	0	0	0	6.926734352776744E+004	1.9999999E-004	-2.0479804E-001	1.9980223E-004	3.4151475E-005	3.4151475E-005	0	9.486520958640388E-006	43	2.597670864388795E-009	0.000000000000000E+000	2.139149820922187E+002	0.000000000000000E+000	6.926734352776744E+004	0.000000000000000E+000	9.486520958640388E-006	9.486520958640388E-006	0.0000000E+000	0.000000000000000E+000	-4.0919108E-008
1	1	0	1	0	0	0	6.927479272602010E+004	1.9999999E-004	-1.9479483E-001	1.9982515E-004	3.5640001E-005	3.5640001E-005	0	9.900000397108316E-006	43	2.678214522827037E-009	0.000000000000000E+000	2.100759079798170E+002	0.000000000000000E+000	6.927479272602010E+004	0.000000000000000E+000	9.900000397108316E-006	9.900000397108316E-006	0.0000000E+000	0.000000000000000E+000	-3.8924906E-008
1	1	0	1	0	0	0	6.928191392434876E+004	1.9999999E-004	-1.8479164E-001	1.9980989E-004	3.7062964E-005	3.7062964E-005	0	1.029526730808685E-005	43	2.751256543325996E-009	0.000000000000000E+000	2.062994206238572E+002	0.000000000000000E+000	6.928191392434876E+004	0.000000000000000E+000	1.029526730808685E-005	1.029526730808685E-005	0.0000000E+000	0.000000000000000E+000	-3.6923197E-008
1	1	0	1	0	0	0	6.928884952271939E+004	1.9999999E-004	-1.7475788E-001	1.9984809E-004	3.8448863E-005	3.8448863E-005	0	1.068023941478537E-005	43	2.818533453688466E-009	0.000000000000000E+000	2.026932270542622E+002	0.000000000000000E+000	6.928884952271939E+004	0.000000000000000E+000	1.068023941478537E-005	1.068023941478537E-005	0.0000000E+000	0.000000000000000E+000	-3.4925030E-008
1	1	0	1	0	0	0	6.929568352110521E+004	1.9999999E-004	-1.6472797E-001	1.9984425E-004	3.9814477E-005	3.9814477E-005	0	1.105957640529924E-005	43	2.881020866445037E-009	0.000000000000000E+000	1.993516356911470E+002	0.000000000000000E+000	6.929568352110521E+004	0.000000000000000E+000	1.105957640529924E-005	1.105957640529924E-005	0.0000000E+000	0.000000000000000E+000	-3.2919939E-008
1	1	0	1	0	0	0	6.930248451948244E+004	1.9999999E-004	-1.5472096E-001	1.9980989E-004	4.1173513E-005	4.1173513E-005	0	1.143708674786755E-005	43	2.939429629830116E-009	0.000000000000000E+000	1.963197092071880E+002	0.000000000000000E+000	6.930248451948244E+004	0.000000000000000E+000	1.143708674786755E-005	1.143708674786755E-005	0.0000000E+000	0.000000000000000E+000	-3.0914777E-008
1	1	0	1	0	0	0	6.930928851786163E+004	1.9999999E-004	-1.4471394E-001	1.9980987E-004	4.2533080E-005	4.2533080E-005	0	1.181474453370139E-005	43	2.994081975323709E-009	0.000000000000000E+000	1.935663421818852E+002	0.000000000000000E+000	6.930928851786163E+004	0.000000000000000E+000	1.181474453370139E-005	1.181474453370139E-005	0.0000000E+000	0.000000000000000E+000	-2.8915274E-008
1	1	0	1	0	0	0	6.931612531623078E+004	1.9999999E-004	-1.3470311E-001	1.9980605E-004	4.3899159E-005	4.3899159E-005	0	1.219421091392122E-005	43	3.045197278636234E-009	0.000000000000000E+000	1.910780167937705E+002	0.000000000000000E+000	6.931612531623078E+004	0.000000000000000E+000	1.219421091392122E-005	1.219421091392122E-005	0.0000000E+000	0.000000000000000E+000	-2.6914497E-008
1	1	0	1	0	0	0	6.932305671459576E+004	1.9999999E-004	-1.2469991E-001	1.9982515E-004	4.5284112E-005	4.5284112E-005	0	1.257892022136654E-005	43	3.093170492925297E-009	0.000000000000000E+000	1.888822108687340E+002	0.000000000000000E+000	6.932305671459576E+004	0.000000000000000E+000	1.257892022136654E-005	1.257892022136654E-005	0.0000000E+000	0.000000000000000E+000	-2.4918178E-008
1	1	0	1	0	0	0	6.933013511293405E+004	1.9999999E-004	-1.1469289E-001	1.9980223E-004	4.6698413E-005	4.6698413E-005	0	1.297178094262164E-005	43	3.138228824081152E-009	0.000000000000000E+000	1.869769535153923E+002	0.000000000000000E+000	6.933013511293405E+004	0.000000000000000E+000	1.297178094262164E-005	1.297178094262164E-005	0.0000000E+000	0.000000000000000E+000	-2.2915895E-008
1	1	0	1	0	0	0	6.933736071123742E+004	1.9999999E-004	-1.0468588E-001	1.9976786E-004	4.8142079E-005	4.8142079E-005	0	1.337279942295537E-005	43	3.180209796688911E-009	0.000000000000000E+000	1.853315380474602E+002	0.000000000000000E+000	6.933736071123742E+004	0.000000000000000E+000	1.337279942295537E-005	1.337279942295537E-005	0.0000000E+000	0.000000000000000E+000	-2.0912875E-008
1	1	0	1	0	0	0	6.934475110950333E+004	1.9999999E-004	-9.4678864E-002	1.9980605E-004	4.9618724E-005	4.9618724E-005	0	1.378297901958412E-005	43	3.219045134885716E-009	0.000000000000000E+000	1.839304481084089E+002	0.000000000000000E+000	6.934475110950333E+004	0.000000000000000E+000	1.378297901958412E-005	1.378297901958412E-005	0.0000000E+000	0.000000000000000E+000	-1.8917410E-008
1	1	0	1	0	0	0	6.935234390769464E+004	1.9999999E-004	-8.4675662E-002	1.9983279E-004	5.1135834E-005	5.1135834E-005	0	1.420439824564573E-005	43	3.254729086924522E-009	0.000000000000000E+000	1.827767233379775E+002	0.000000000000000E+000	6.935234390769464E+004	0.000000000000000E+000	1.420439824564573E-005	1.420439824564573E-005	0.0000000E+000	0.000000000000000E+000	-1.6920975E-008
1	1	0	1	0	0	0	6.936016790583055E+004	1.9999999E-004	-7.4661009E-002	1.9978314E-004	5.2699088E-005	5.2699088E-005	0	1.463863595975484E-005	43	3.287149712811691E-009	0.000000000000000E+000	1.818547015599065E+002	0.000000000000000E+000	6.936016790583055E+004	0.000000000000000E+000	1.463863595975484E-005	1.463863595975484E-005	0.0000000E+000	0.000000000000000E+000	-1.4916012E-008
1	1	0	1	0	0	0	6.936817430392187E+004	1.9999999E-004	-6.4657815E-002	1.9982898E-004	5.4298802E-005	5.4298802E-005	0	1.508300083329121E-005	43	3.315881374508759E-009	0.000000000000000E+000	1.811227990046415E+002	0.000000000000000E+000	6.936817430392187E+004	0.000000000000000E+000	1.508300083329121E-005	1.508300083329121E-005	0.0000000E+000	0.000000000000000E+000	-1.2920506E-008
1	1	0	1	0	0	0	6.937640210197796E+004	1.9999999E-004	-5.4654613E-002	1.9982515E-004	5.5942801E-005	5.5942801E-005	0	1.553966682634574E-005	43	3.340840277692090E-009	0.000000000000000E+000	1.805811270930807E+002	0.000000000000000E+000	6.937640210197796E+004	0.000000000000000E+000	1.553966682634574E-005	1.553966682634574E-005	0.0000000E+000	0.000000000000000E+000	-1.0921366E-008
1	1	0	1	0	0	0	6.938476290001511E+004	1.9999999E-004	-4.4651411E-002	1.9981370E-004	5.7613404E-005	5.7613404E-005	0	1.600372355028604E-005	43	3.361561065419909E-009	0.000000000000000E+000	1.801565238854185E+002	0.000000000000000E+000	6.938476290001511E+004	0.000000000000000E+000	1.600372355028604E-005	1.600372355028604E-005	0.0000000E+000	0.000000000000000E+000	-8.9219636E-009
1	1	0	1	0	0	0	6.939333329800284E+004	1.9999999E-004	-3.4644399E-002	1.9985190E-004	5.9325896E-005	5.9325896E-005	0	1.647941516584301E-005	43	3.378041115473292E-009	0.000000000000000E+000	1.798826006744557E+002	0.000000000000000E+000	6.939333329800284E+004	0.000000000000000E+000	1.647941516584301E-005	1.647941516584301E-005	0.0000000E+000	0.000000000000000E+000	-6.9237491E-009
1	1	0	1	0	0	0	6.940193089597218E+004	1.9999999E-004	-2.4625927E-002	1.9975258E-004	6.1043778E-005	6.1043778E-005	0	1.695660435569284E-005	43	3.389792341727863E-009	0.000000000000000E+000	1.796346267095458E+002	0.000000000000000E+000	6.940193089597218E+004	0.000000000000000E+000	1.695660435569284E-005	1.695660435569284E-005	0.0000000E+000	0.000000000000000E+000	-4.9190927E-009
1	1	0	1	0	0	0	6.941063209389721E+004	1.9999999E-004	-1.4622730E-002	1.9978695E-004	6.2782397E-005	6.2782397E-005	0	1.743955398583512E-005	43	3.396854383871059E-009	0.000000000000000E+000	1.794679603690691E+002	0.000000000000000E+000	6.941063209389721E+004	0.000000000000000E+000	1.743955398583512E-005	1.743955398583512E-005	0.0000000E+000	0.000000000000000E+000	-2.9214307E-009
1	1	0	1	0	0	0	6.941934809181839E+004	1.9999999E-004	-4.6195313E-003	1.9981751E-004	6.4523963E-005	6.4523963E-005	0	1.792332340973907E-005	43	3.399089171882946E-009	0.000000000000000E+000	1.793187773624127E+002	0.000000000000000E+000	6.941934809181839E+004	0.000000000000000E+000	1.792332340973907E-005	1.792332340973907E-005	0.0000000E+000	0.000000000000000E+000	-9.2306329E-010
1	1	0	1	0	0	0	6.942332949086977E+004	1.9999999E-004	2.6617818E-007	1.9982898E-004	6.5319502E-005	6.5319502E-005	0	1.814430655174480E-005	43	3.399089230703836E-009	0.000000000000000E+000	1.792285619511855E+002	0.000000000000000E+000	6.942332949086977E+004	0.000000000000000E+000	1.814430655174480E-005	1.814430655174480E-005	0.0000000E+000	0.000000000000000E+000	5.3190115E-014
1	1	0	1	0	0	0	6.942332969086978E+004	1.9999999E-004	-6.0821960E-005	1.9982515E-004	6.5319546E-005	6.5319546E-005	0	1.814431765314223E-005	43	3.399089231379045E-009	0.000000000000000E+000	1.792587218962428E+002	0.000000000000000E+000	6.942332969086978E+004	0.000000000000000E+000	1.814431765314223E-005	1.814431765314223E-005	0.0000000E+000	0.000000000000000E+000	-1.2153757E-011