EC-Lab ASCII FILE
Nb header lines : 48                          

Open Circuit Voltage

Run on channel : 4 (SN 13148)
User : 
Electrode connection : standard
Potential control : Ewe
Ewe ctrl range : min = -1.00 V, max = 1.00 V
Ewe,I filtering : 5 Hz
Safety Limits :
	Do not start on E overload
Channel : Floating
Acquisition started on : 06/24/2024 21:42:04.718
Loaded Setting File :  NONE
Saved on :
	File : 1540_A_05_OCV_C04.mpr
	Directory : C:\Users\mAtsuhitA\Desktop\Oyafuso\20240624_???????4\
	Host : 192.109.209.100
Device : VSP-300 (SN 0960)
Address : USB
EC-Lab for windows v11.50 (software)
Internet server v11.50 (firmware)
Command interpretor v11.50 (firmware)
Electrode material : 
Initial state : 
Electrolyte : 
Comments : 
Cable : standard
Electrode surface area : 0.001 cm2
Characteristic mass : 0.001 g
Equivalent Weight : 0.000 g/eq.
Density : 0.000 g/cm3
Volume (V) : 0.001 cm3
Text export
   Mode : Standard
   Time format : Elapsed
Cycle Definition : Charge/Discharge alternance
tR (h:m:s)          5:00:0.0000         
dER/dt (mV/h)       0.0                 
record              Ewe                 
dER (mV)            10.00               
dtR (s)             30.0000             
E range min (V)     -1.000              
E range max (V)     1.000               

mode	error	time/s	Ewe/V	
3	0	3.024296457995998E+004	-1.3810987E-004
3	0	3.024321977995685E+004	-1.0151903E-002
3	0	3.024354237995297E+004	-2.0182872E-002
3	0	3.024393897994817E+004	-3.0230774E-002
3	0	3.024439397994266E+004	-4.0233970E-002
3	0	3.024490337993647E+004	-5.0248623E-002
3	0	3.024547017992963E+004	-6.0263276E-002
3	0	3.024608257992222E+004	-7.0277929E-002
3	0	3.024673697991431E+004	-8.0300212E-002
3	0	3.024742577990596E+004	-9.0303414E-002
3	0	3.024814097989732E+004	-1.0031043E-001
3	0	3.024887817988836E+004	-1.1033272E-001
3	0	3.024963437987922E+004	-1.2034356E-001
3	0	3.025040037986994E+004	-1.3034675E-001
3	0	3.025118517986045E+004	-1.4037667E-001
3	0	3.025197817985085E+004	-1.5037988E-001
3	0	3.025278497984108E+004	-1.6040598E-001
3	0	3.025361097983108E+004	-1.7041682E-001
3	0	3.025445717982083E+004	-1.8042001E-001
3	0	3.025532657981029E+004	-1.9042702E-001
3	0	3.025623077979937E+004	-2.0044167E-001
3	0	3.025718217978784E+004	-2.1044870E-001
3	0	3.025819037977565E+004	-2.2045189E-001
3	0	3.025927737976247E+004	-2.3046273E-001
3	0	3.026046997974801E+004	-2.4047738E-001
3	0	3.026181857973170E+004	-2.5049204E-001
3	0	3.026337437971286E+004	-2.6050287E-001
3	0	3.026525237969012E+004	-2.7052516E-001
3	0	3.026761857966147E+004	-2.8053218E-001
3	0	3.027075377962353E+004	-2.9053536E-001
3	0	3.027515277957026E+004	-3.0053857E-001
3	0	3.028180197948974E+004	-3.1054178E-001
3	0	3.029263177935866E+004	-3.2054496E-001
3	0	3.031231917912030E+004	-3.3056343E-001
3	0	3.034231917875708E+004	-3.3842471E-001
3	0	3.037231917839387E+004	-3.4311706E-001
3	0	3.040231917803065E+004	-3.4645784E-001
3	0	3.043231917766744E+004	-3.4902734E-001
3	0	3.046231917730422E+004	-3.5110053E-001
3	0	3.049231917694100E+004	-3.5292172E-001
3	0	3.052231917657779E+004	-3.5457873E-001
3	0	3.055231917621457E+004	-3.5591888E-001
3	0	3.058231917585136E+004	-3.5723990E-001
3	0	3.061231917548814E+004	-3.5841203E-001
3	0	3.064231917512493E+004	-3.5953453E-001
3	0	3.067231917476171E+004	-3.6056918E-001
3	0	3.070231917439849E+004	-3.6144733E-001
3	0	3.073231917403528E+004	-3.6240566E-001
3	0	3.076231917367206E+004	-3.6322656E-001
3	0	3.079231917330885E+004	-3.6398634E-001
3	0	3.082231917294563E+004	-3.6481482E-001
3	0	3.085231917258241E+004	-3.6554790E-001
3	0	3.088231917221920E+004	-3.6618930E-001
3	0	3.091231917185598E+004	-3.6686891E-001
3	0	3.094231917149277E+004	-3.6756000E-001
3	0	3.097231917112955E+004	-3.6818233E-001
3	0	3.100231917076634E+004	-3.6883521E-001
3	0	3.103231917040312E+004	-3.6934683E-001
3	0	3.106231917003990E+004	-3.6988899E-001
3	0	3.109231916967669E+004	-3.7042350E-001
3	0	3.112231916931347E+004	-3.7094656E-001
3	0	3.115231916895026E+004	-3.7150016E-001
3	0	3.118231916858704E+004	-3.7194309E-001
3	0	3.121231916822382E+004	-3.7246996E-001
3	0	3.124231916786061E+004	-3.7297776E-001
3	0	3.127231916749739E+004	-3.7347409E-001
3	0	3.130231916713418E+004	-3.7388644E-001
3	0	3.133231916677096E+004	-3.7434077E-001
3	0	3.136231916640775E+004	-3.7479895E-001
3	0	3.139231916604453E+004	-3.7522656E-001
3	0	3.142231916568131E+004	-3.7560454E-001
3	0	3.145231916531810E+004	-3.7595201E-001
3	0	3.148231916495488E+004	-3.7641776E-001
3	0	3.151231916459167E+004	-3.7676141E-001
3	0	3.154231916422845E+004	-3.7714320E-001
3	0	3.157231916386524E+004	-3.7749830E-001
3	0	3.160231916350202E+004	-3.7783426E-001
3	0	3.163231916313880E+004	-3.7820461E-001
3	0	3.166231916277559E+004	-3.7854442E-001
3	0	3.169231916241237E+004	-3.7883076E-001
3	0	3.172231916204916E+004	-3.7914005E-001
3	0	3.175231916168594E+004	-3.7953711E-001
3	0	3.178231916132272E+004	-3.7980056E-001
3	0	3.181231916095951E+004	-3.8006783E-001
3	0	3.184231916059629E+004	-3.8033506E-001
3	0	3.187231916023308E+004	-3.8066724E-001
3	0	3.190231915986986E+004	-3.8093832E-001
3	0	3.193231915950665E+004	-3.8120177E-001
3	0	3.196231915914343E+004	-3.8147283E-001
3	0	3.199231915878021E+004	-3.8173246E-001
3	0	3.202231915841700E+004	-3.8196537E-001
3	0	3.205231915805378E+004	-3.8222116E-001
3	0	3.208231915769057E+004	-3.8245022E-001
3	0	3.211231915732735E+004	-3.8272133E-001
3	0	3.214231915696413E+004	-3.8296568E-001
3	0	3.217231915660092E+004	-3.8315275E-001
3	0	3.220231915623770E+004	-3.8343146E-001
3	0	3.223231915587449E+004	-3.8369873E-001
3	0	3.226231915551127E+004	-3.8388580E-001
3	0	3.229231915514806E+004	-3.8414925E-001
3	0	3.232231915478484E+004	-3.8433254E-001
3	0	3.235231915442162E+004	-3.8446999E-001
3	0	3.238231915405841E+004	-3.8474870E-001
3	0	3.241231915369519E+004	-3.8496631E-001
3	0	3.244231915333198E+004	-3.8509235E-001
3	0	3.247231915296876E+004	-3.8535959E-001
3	0	3.250231915260555E+004	-3.8551992E-001
3	0	3.253231915224233E+004	-3.8571465E-001
3	0	3.256231915187911E+004	-3.8590938E-001
3	0	3.259231915151590E+004	-3.8605827E-001
3	0	3.262231915115268E+004	-3.8628736E-001
3	0	3.265231915078947E+004	-3.8642478E-001
3	0	3.268231915042625E+004	-3.8659662E-001
3	0	3.271231915006303E+004	-3.8681042E-001
3	0	3.274231914969982E+004	-3.8695550E-001
3	0	3.277231914939696E+004	-3.8710061E-001
3	0	3.280231914945284E+004	-3.8720366E-001
3	0	3.283231914950872E+004	-3.8736403E-001
3	0	3.286231914956460E+004	-3.8759312E-001
3	0	3.289231914962048E+004	-3.8772294E-001
3	0	3.292231914967636E+004	-3.8787565E-001
3	0	3.295231914973224E+004	-3.8802072E-001
3	0	3.298231914978812E+004	-3.8816583E-001
3	0	3.301231914984400E+004	-3.8835672E-001
3	0	3.304231914989988E+004	-3.8849035E-001
3	0	3.307231914995576E+004	-3.8863927E-001
3	0	3.310231915001164E+004	-3.8874996E-001
3	0	3.313231915006752E+004	-3.8887215E-001
3	0	3.316231915012340E+004	-3.8896760E-001
3	0	3.319231915017928E+004	-3.8912416E-001
3	0	3.322231915023515E+004	-3.8930741E-001
3	0	3.325231915029103E+004	-3.8943723E-001
3	0	3.328231915034691E+004	-3.8954794E-001
3	0	3.331231915040279E+004	-3.8964337E-001
3	0	3.334231915045867E+004	-3.8983810E-001
3	0	3.337231915051455E+004	-3.8998318E-001
3	0	3.340231915057043E+004	-3.9011681E-001
3	0	3.343231915062631E+004	-3.9025044E-001
3	0	3.346231915068219E+004	-3.9036116E-001
3	0	3.349231915073807E+004	-3.9049101E-001
3	0	3.352231915079395E+004	-3.9057881E-001
3	0	3.355231915084983E+004	-3.9070481E-001
3	0	3.358231915090571E+004	-3.9085370E-001
3	0	3.361231915096159E+004	-3.9097589E-001
3	0	3.364231915101747E+004	-3.9112860E-001
3	0	3.367231915107335E+004	-3.9115152E-001
3	0	3.370231915112922E+004	-3.9131567E-001
3	0	3.373231915118510E+004	-3.9141876E-001
3	0	3.376231915124098E+004	-3.9161730E-001
3	0	3.379231915129686E+004	-3.9175093E-001
3	0	3.382231915135274E+004	-3.9180437E-001
3	0	3.385231915140862E+004	-3.9185402E-001
3	0	3.388231915146450E+004	-3.9202583E-001
3	0	3.391231915152038E+004	-3.9214036E-001
3	0	3.394231915157626E+004	-3.9219764E-001
3	0	3.397231915163214E+004	-3.9233127E-001
3	0	3.400231915168802E+004	-3.9241529E-001
3	0	3.403231915174390E+004	-3.9254126E-001
3	0	3.406231915179978E+004	-3.9267489E-001
3	0	3.409231915185566E+004	-3.9267108E-001
3	0	3.412231915191154E+004	-3.9284289E-001
3	0	3.415231915196741E+004	-3.9298415E-001
3	0	3.418231915202329E+004	-3.9303762E-001
3	0	3.421231915207917E+004	-3.9309487E-001
3	0	3.424231915213505E+004	-3.9321324E-001
3	0	3.427231915219093E+004	-3.9330104E-001
3	0	3.430231915224681E+004	-3.9338887E-001
3	0	3.433231915230269E+004	-3.9349958E-001
3	0	3.436231915235857E+004	-3.9361796E-001
3	0	3.439231915241445E+004	-3.9371338E-001
3	0	3.442231915247033E+004	-3.9376304E-001
3	0	3.445231915252621E+004	-3.9384702E-001
3	0	3.448231915258209E+004	-3.9389282E-001
3	0	3.451231915263797E+004	-3.9401883E-001
3	0	3.454231915269385E+004	-3.9409134E-001
3	0	3.457231915274973E+004	-3.9416772E-001
3	0	3.460231915280561E+004	-3.9426699E-001
3	0	3.463231915286148E+004	-3.9433190E-001
3	0	3.466231915291736E+004	-3.9443880E-001
3	0	3.469231915297324E+004	-3.9449608E-001
3	0	3.472231915302912E+004	-3.9459917E-001
3	0	3.475231915308500E+004	-3.9465645E-001
3	0	3.478231915314088E+004	-3.9468318E-001
3	0	3.481231915319676E+004	-3.9482445E-001
3	0	3.484231915325264E+004	-3.9485118E-001
3	0	3.487231915330852E+004	-3.9495045E-001
3	0	3.490231915336440E+004	-3.9500770E-001
3	0	3.493231915342028E+004	-3.9503062E-001
3	0	3.496231915347616E+004	-3.9509550E-001
3	0	3.499231915353204E+004	-3.9514515E-001
3	0	3.502231915358792E+004	-3.9524823E-001
3	0	3.505231915364380E+004	-3.9524442E-001
3	0	3.508231915369967E+004	-3.9533222E-001
3	0	3.511231915375555E+004	-3.9538568E-001
3	0	3.514231915381143E+004	-3.9541242E-001
3	0	3.517231915386731E+004	-3.9553457E-001
3	0	3.520231915392319E+004	-3.9557657E-001
3	0	3.523231915397907E+004	-3.9563766E-001
3	0	3.526231915403495E+004	-3.9570642E-001
3	0	3.529231915409083E+004	-3.9580184E-001
3	0	3.532231915414671E+004	-3.9581332E-001
3	0	3.535231915420259E+004	-3.9588585E-001
3	0	3.538231915425847E+004	-3.9592022E-001
3	0	3.541231915431435E+004	-3.9601567E-001
3	0	3.544231915437023E+004	-3.9607674E-001
3	0	3.547231915442611E+004	-3.9616075E-001
3	0	3.550231915448199E+004	-3.9620274E-001
3	0	3.553231915453787E+004	-3.9625621E-001
3	0	3.556231915459374E+004	-3.9627528E-001
3	0	3.559231915464962E+004	-3.9631727E-001
3	0	3.562231915470550E+004	-3.9643565E-001
3	0	3.565231915476138E+004	-3.9645854E-001
3	0	3.568231915481726E+004	-3.9646998E-001
3	0	3.571231915487314E+004	-3.9656165E-001
3	0	3.574231915492902E+004	-3.9664179E-001
3	0	3.577231915498490E+004	-3.9670289E-001
3	0	3.580231915504078E+004	-3.9673725E-001
3	0	3.583231915509666E+004	-3.9677542E-001
3	0	3.586231915515254E+004	-3.9682508E-001
3	0	3.589231915520842E+004	-3.9689380E-001
3	0	3.592231915526430E+004	-3.9692816E-001
3	0	3.595231915532018E+004	-3.9706942E-001
3	0	3.598231915537606E+004	-3.9706561E-001
3	0	3.601231915543193E+004	-3.9709997E-001
3	0	3.604231915548781E+004	-3.9717251E-001
3	0	3.607231915554369E+004	-3.9724123E-001
3	0	3.610231915559957E+004	-3.9730614E-001
3	0	3.613231915565545E+004	-3.9732906E-001
3	0	3.616231915571133E+004	-3.9740542E-001
3	0	3.619231915576721E+004	-3.9739779E-001
3	0	3.622231915582309E+004	-3.9747033E-001
3	0	3.625231915587897E+004	-3.9750469E-001
3	0	3.628231915593485E+004	-3.9756960E-001
3	0	3.631231915599073E+004	-3.9755049E-001
3	0	3.634231915604661E+004	-3.9760014E-001
3	0	3.637231915610249E+004	-3.9763829E-001
3	0	3.640231915615837E+004	-3.9769942E-001
3	0	3.643231915621425E+004	-3.9768031E-001
3	0	3.646231915627013E+004	-3.9772233E-001
3	0	3.649231915632600E+004	-3.9781395E-001
3	0	3.652231915638188E+004	-3.9782539E-001
3	0	3.655231915643776E+004	-3.9784831E-001
3	0	3.658231915649364E+004	-3.9786357E-001
3	0	3.661231915654952E+004	-3.9790937E-001
3	0	3.664231915660540E+004	-3.9793611E-001
3	0	3.667231915666128E+004	-3.9796665E-001
3	0	3.670231915671716E+004	-3.9792466E-001
3	0	3.673231915677304E+004	-3.9804304E-001
3	0	3.676231915682892E+004	-3.9806592E-001
3	0	3.679231915688480E+004	-3.9811176E-001
3	0	3.682231915694068E+004	-3.9810410E-001
3	0	3.685231915699656E+004	-3.9818811E-001
3	0	3.688231915705244E+004	-3.9820337E-001
3	0	3.691231915710832E+004	-3.9825302E-001
3	0	3.694231915716419E+004	-3.9824155E-001
3	0	3.697231915722007E+004	-3.9831793E-001
3	0	3.700231915727595E+004	-3.9834085E-001
3	0	3.703231915733183E+004	-3.9833701E-001
3	0	3.706231915738771E+004	-3.9837518E-001
3	0	3.709231915744359E+004	-3.9842483E-001
3	0	3.712231915749947E+004	-3.9849356E-001
3	0	3.715231915755535E+004	-3.9850119E-001
3	0	3.718231915761123E+004	-3.9857754E-001
3	0	3.721231915766711E+004	-3.9855465E-001
3	0	3.724231915772299E+004	-3.9860812E-001
3	0	3.727231915777887E+004	-3.9863864E-001
3	0	3.730231915783475E+004	-3.9869207E-001
3	0	3.733231915789063E+004	-3.9871883E-001
3	0	3.736231915794651E+004	-3.9878750E-001
3	0	3.739231915800238E+004	-3.9878753E-001
3	0	3.742231915805826E+004	-3.9887151E-001
3	0	3.745231915811414E+004	-3.9891735E-001
3	0	3.748231915817002E+004	-3.9889443E-001
3	0	3.751231915822590E+004	-3.9890209E-001
3	0	3.754231915828178E+004	-3.9894027E-001
3	0	3.757231915833766E+004	-3.9892882E-001
3	0	3.760231915839354E+004	-3.9901662E-001
3	0	3.763231915844942E+004	-3.9908150E-001
3	0	3.766231915850530E+004	-3.9910442E-001
3	0	3.769231915856118E+004	-3.9910442E-001
3	0	3.772231915861706E+004	-3.9912352E-001
3	0	3.775231915867294E+004	-3.9912352E-001
3	0	3.778231915872882E+004	-3.9915407E-001
3	0	3.781231915878470E+004	-3.9920750E-001
3	0	3.784231915884058E+004	-3.9924949E-001
3	0	3.787231915889645E+004	-3.9926863E-001
3	0	3.790231915895233E+004	-3.9924949E-001
3	0	3.793231915900821E+004	-3.9928770E-001
3	0	3.796231915906409E+004	-3.9932206E-001
3	0	3.799231915911997E+004	-3.9933351E-001
3	0	3.802231915917585E+004	-3.9935261E-001
3	0	3.805231915923173E+004	-3.9943659E-001
3	0	3.808231915928761E+004	-3.9940223E-001
3	0	3.811231915934349E+004	-3.9943278E-001
3	0	3.814231915939949E+004	-3.9946330E-001
3	0	3.817231915945536E+004	-3.9951676E-001
3	0	3.820231915951124E+004	-3.9953586E-001
3	0	3.823231915956712E+004	-3.9954731E-001
3	0	3.826231915962300E+004	-3.9955112E-001
3	0	3.829231915967888E+004	-3.9957407E-001
3	0	3.832231915973476E+004	-3.9963895E-001
3	0	3.835231915979064E+004	-3.9965802E-001
3	0	3.838231915984652E+004	-3.9967713E-001
3	0	3.841231915990240E+004	-3.9970005E-001
3	0	3.844231915995828E+004	-3.9977258E-001
3	0	3.847231916001416E+004	-3.9976874E-001
3	0	3.850231916007004E+004	-3.9976493E-001
3	0	3.853231916012592E+004	-3.9981076E-001
3	0	3.856231916018180E+004	-3.9981839E-001
3	0	3.859231916023768E+004	-3.9984512E-001
3	0	3.862231916029355E+004	-3.9989856E-001
3	0	3.865231916034943E+004	-3.9993292E-001
3	0	3.868231916040531E+004	-3.9991766E-001
3	0	3.871231916046119E+004	-3.9995202E-001
3	0	3.874231916051707E+004	-3.9999786E-001
3	0	3.877231916057295E+004	-4.0004367E-001
3	0	3.880231916062883E+004	-4.0000167E-001
3	0	3.883231916068471E+004	-4.0006658E-001
3	0	3.886231916074059E+004	-4.0003222E-001
3	0	3.889231916079647E+004	-4.0007040E-001
3	0	3.892231916085235E+004	-4.0012765E-001
3	0	3.895231916090823E+004	-4.0005511E-001
3	0	3.898231916096411E+004	-4.0010092E-001
3	0	3.901231916101999E+004	-4.0012383E-001
3	0	3.904231916107587E+004	-4.0013146E-001
3	0	3.907231916113175E+004	-4.0009710E-001
3	0	3.910231916118762E+004	-4.0011236E-001
3	0	3.913231916124350E+004	-4.0017730E-001
3	0	3.916231916129938E+004	-4.0020019E-001
3	0	3.919231916135526E+004	-4.0022692E-001
3	0	3.922231916141114E+004	-4.0032238E-001
3	0	3.925231916146702E+004	-4.0027654E-001
3	0	3.928231916152290E+004	-4.0033001E-001
3	0	3.931231916157878E+004	-4.0034530E-001
3	0	3.934231916163466E+004	-4.0031093E-001
3	0	3.937231916169054E+004	-4.0040255E-001
3	0	3.940231916174642E+004	-4.0036818E-001
3	0	3.943231916180230E+004	-4.0040636E-001
3	0	3.946231916185818E+004	-4.0039873E-001
3	0	3.949231916191406E+004	-4.0049800E-001
3	0	3.952231916196994E+004	-4.0047511E-001
3	0	3.955231916202581E+004	-4.0045598E-001
3	0	3.958231916208169E+004	-4.0045220E-001
3	0	3.961231916213757E+004	-4.0045983E-001
3	0	3.964231916219345E+004	-4.0049800E-001
3	0	3.967231916224933E+004	-4.0054384E-001
3	0	3.970231916230521E+004	-4.0053999E-001
3	0	3.973231916236109E+004	-4.0050945E-001
3	0	3.976231916241697E+004	-4.0057054E-001
3	0	3.979231916247285E+004	-4.0057057E-001
3	0	3.982231916252873E+004	-4.0058580E-001
3	0	3.985231916258461E+004	-4.0059727E-001
3	0	3.988231916264049E+004	-4.0059346E-001
3	0	3.991231916269637E+004	-4.0059727E-001
3	0	3.994231916275225E+004	-4.0066600E-001
3	0	3.997231916280813E+004	-4.0062779E-001
3	0	4.000231916286401E+004	-4.0066981E-001
3	0	4.003231916291988E+004	-4.0066600E-001
3	0	4.006231916297576E+004	-4.0066600E-001
3	0	4.009231916303164E+004	-4.0064690E-001
3	0	4.012231916308752E+004	-4.0064692E-001
3	0	4.015231916314340E+004	-4.0065837E-001
3	0	4.018231916319928E+004	-4.0065074E-001
3	0	4.021231916325516E+004	-4.0066218E-001
3	0	4.024231916331104E+004	-4.0063545E-001
3	0	4.027231916336692E+004	-4.0063927E-001
3	0	4.030231916342280E+004	-4.0062019E-001
3	0	4.033231916347868E+004	-4.0065071E-001
3	0	4.036231916353456E+004	-4.0062401E-001
3	0	4.039231916359044E+004	-4.0071562E-001
3	0	4.042231916364632E+004	-4.0072325E-001
3	0	4.045231916370220E+004	-4.0073854E-001
3	0	4.048231916375807E+004	-4.0071562E-001
3	0	4.051231916381395E+004	-4.0075761E-001
3	0	4.054231916386983E+004	-4.0075380E-001
3	0	4.057231916392571E+004	-4.0076527E-001
3	0	4.060231916398159E+004	-4.0081871E-001
3	0	4.063231916403747E+004	-4.0077671E-001
3	0	4.066231916409335E+004	-4.0081108E-001
3	0	4.069231916414923E+004	-4.0082255E-001
3	0	4.072231916420511E+004	-4.0088362E-001
3	0	4.075231916426099E+004	-4.0092942E-001
3	0	4.078231916431687E+004	-4.0094852E-001
3	0	4.081231916437275E+004	-4.0102106E-001
3	0	4.084231916442863E+004	-4.0094090E-001
3	0	4.087231916448451E+004	-4.0101725E-001
3	0	4.090231916454039E+004	-4.0098670E-001
3	0	4.093231916459627E+004	-4.0101343E-001
3	0	4.096231916465214E+004	-4.0105161E-001
3	0	4.099231916470802E+004	-4.0108597E-001
3	0	4.102231916476390E+004	-4.0105924E-001
3	0	4.105231916481978E+004	-4.0105927E-001
3	0	4.108231916487566E+004	-4.0105924E-001
3	0	4.111231916493154E+004	-4.0113559E-001
3	0	4.114231916498742E+004	-4.0115088E-001
3	0	4.117231916504330E+004	-4.0115088E-001
3	0	4.120231916509918E+004	-4.0120050E-001
3	0	4.123231916515506E+004	-4.0120816E-001
3	0	4.126231916521094E+004	-4.0120432E-001
3	0	4.129231916526682E+004	-4.0123868E-001
3	0	4.132231916532270E+004	-4.0125397E-001
3	0	4.135231916537858E+004	-4.0125400E-001
3	0	4.138231916543446E+004	-4.0126926E-001
3	0	4.141231916549033E+004	-4.0125400E-001
3	0	4.144231916554621E+004	-4.0128452E-001
3	0	4.147231916560209E+004	-4.0128833E-001
3	0	4.150231916565797E+004	-4.0134180E-001
3	0	4.153231916571385E+004	-4.0131888E-001
3	0	4.156231916576973E+004	-4.0134561E-001
3	0	4.159231916582561E+004	-4.0129980E-001
3	0	4.162231916588149E+004	-4.0140671E-001
3	0	4.165231916593737E+004	-4.0137997E-001
3	0	4.168231916599325E+004	-4.0138379E-001
3	0	4.171231916604913E+004	-4.0130362E-001
3	0	4.174231916610501E+004	-4.0130362E-001
3	0	4.177231916616089E+004	-4.0130743E-001
3	0	4.180231916621677E+004	-4.0135705E-001
3	0	4.183231916627265E+004	-4.0131506E-001
3	0	4.186231916632853E+004	-4.0132651E-001
3	0	4.189231916638440E+004	-4.0135705E-001
3	0	4.192231916644028E+004	-4.0139523E-001
3	0	4.195231916649616E+004	-4.0134943E-001
3	0	4.198231916655204E+004	-4.0139523E-001
3	0	4.201231916660792E+004	-4.0139142E-001
3	0	4.204231916666380E+004	-4.0140289E-001
3	0	4.207231916671968E+004	-4.0134561E-001
3	0	4.210231916677556E+004	-4.0137231E-001
3	0	4.213231916683144E+004	-4.0137997E-001
3	0	4.216231916688732E+004	-4.0136468E-001
3	0	4.219231916694320E+004	-4.0136087E-001
3	0	4.222231916699908E+004	-4.0136850E-001
3	0	4.225231916705496E+004	-4.0136850E-001
3	0	4.228231916711084E+004	-4.0135705E-001
3	0	4.231231916716672E+004	-4.0135705E-001
3	0	4.234231916722259E+004	-4.0134940E-001
3	0	4.237231916727847E+004	-4.0136853E-001
3	0	4.240231916733435E+004	-4.0133414E-001
3	0	4.243231916739023E+004	-4.0141815E-001
3	0	4.246231916744611E+004	-4.0138379E-001
3	0	4.249231916750199E+004	-4.0138379E-001
3	0	4.252231916755787E+004	-4.0139526E-001
3	0	4.255231916761375E+004	-4.0136087E-001
3	0	4.258231916766963E+004	-4.0140286E-001
3	0	4.261231916772551E+004	-4.0138379E-001
3	0	4.264231916778139E+004	-4.0136850E-001
3	0	4.267231916783727E+004	-4.0138379E-001
3	0	4.270231916789315E+004	-4.0141433E-001
3	0	4.273231916794903E+004	-4.0142196E-001
3	0	4.276231916800491E+004	-4.0141052E-001
3	0	4.279231916806079E+004	-4.0141052E-001
3	0	4.282231916811666E+004	-4.0139142E-001
3	0	4.285231916817254E+004	-4.0136468E-001
3	0	4.288231916822842E+004	-4.0139905E-001
3	0	4.291231916828430E+004	-4.0139905E-001
3	0	4.294231916834018E+004	-4.0141433E-001
3	0	4.297231916839606E+004	-4.0138760E-001
3	0	4.300231916845194E+004	-4.0144107E-001
3	0	4.303231916850782E+004	-4.0137997E-001
3	0	4.306231916856370E+004	-4.0136468E-001
3	0	4.309231916861958E+004	-4.0139142E-001
3	0	4.312231916867546E+004	-4.0133035E-001
3	0	4.315231916873134E+004	-4.0130743E-001
3	0	4.318231916878722E+004	-4.0131122E-001
3	0	4.321231916884310E+004	-4.0135705E-001
3	0	4.324231916889898E+004	-4.0137616E-001
3	0	4.327231916895485E+004	-4.0130362E-001
3	0	4.330231916901073E+004	-4.0128452E-001
3	0	4.333231916906661E+004	-4.0128070E-001
3	0	4.336231916912249E+004	-4.0127307E-001
3	0	4.339231916917837E+004	-4.0124252E-001
3	0	4.342231916923425E+004	-4.0127304E-001
3	0	4.345231916929013E+004	-4.0131888E-001
3	0	4.348231916934601E+004	-4.0126544E-001
3	0	4.351231916940189E+004	-4.0127304E-001
3	0	4.354231916945777E+004	-4.0125778E-001
3	0	4.357231916951365E+004	-4.0121579E-001
3	0	4.360231916956953E+004	-4.0115470E-001
3	0	4.363231916962541E+004	-4.0118524E-001
3	0	4.366231916968129E+004	-4.0118524E-001
3	0	4.369231916973717E+004	-4.0118143E-001
3	0	4.372231916979305E+004	-4.0117377E-001
3	0	4.375231916984892E+004	-4.0118906E-001
3	0	4.378231916990480E+004	-4.0117380E-001
3	0	4.381231916996068E+004	-4.0124252E-001
3	0	4.384231917001656E+004	-4.0122342E-001
3	0	4.387231917007244E+004	-4.0119287E-001
3	0	4.390231917012832E+004	-4.0125015E-001
3	0	4.393231917018420E+004	-4.0121579E-001
3	0	4.396231917024008E+004	-4.0121961E-001
3	0	4.399231917029596E+004	-4.0118906E-001
3	0	4.402231917035184E+004	-4.0123487E-001
3	0	4.405231917040772E+004	-4.0125397E-001
3	0	4.408231917046360E+004	-4.0120050E-001
3	0	4.411231917051948E+004	-4.0125015E-001
3	0	4.414231917057536E+004	-4.0126923E-001
3	0	4.417231917063124E+004	-4.0120432E-001
3	0	4.420231917068711E+004	-4.0121579E-001
3	0	4.423231917074299E+004	-4.0126926E-001
3	0	4.426231917079887E+004	-4.0123489E-001
3	0	4.429231917085475E+004	-4.0125778E-001
3	0	4.432231917091063E+004	-4.0129218E-001
3	0	4.435231917096651E+004	-4.0127307E-001
3	0	4.438231917102239E+004	-4.0131125E-001
3	0	4.441231917107827E+004	-4.0131506E-001
3	0	4.444231917113415E+004	-4.0125397E-001
3	0	4.447231917119003E+004	-4.0125015E-001
3	0	4.450231917124591E+004	-4.0125397E-001
3	0	4.453231917130179E+004	-4.0126544E-001
3	0	4.456231917135767E+004	-4.0127689E-001
3	0	4.459231917141355E+004	-4.0123871E-001
3	0	4.462231917146943E+004	-4.0126163E-001
3	0	4.465231917152531E+004	-4.0122724E-001
3	0	4.468231917158118E+004	-4.0124252E-001
3	0	4.471231917163706E+004	-4.0127304E-001
3	0	4.474231917169294E+004	-4.0127304E-001
3	0	4.477231917174882E+004	-4.0125015E-001
3	0	4.480231917180470E+004	-4.0126544E-001
3	0	4.483231917186058E+004	-4.0125397E-001
3	0	4.486231917191646E+004	-4.0124634E-001
3	0	4.489231917197234E+004	-4.0125778E-001
3	0	4.492231917202822E+004	-4.0123108E-001
3	0	4.495231917208410E+004	-4.0125397E-001
3	0	4.498231917213998E+004	-4.0124252E-001
3	0	4.501231917219586E+004	-4.0118906E-001
3	0	4.504231917225174E+004	-4.0121961E-001
3	0	4.507231917230762E+004	-4.0129596E-001
3	0	4.510231917236350E+004	-4.0120053E-001
3	0	4.513231917241937E+004	-4.0128833E-001
3	0	4.516231917247525E+004	-4.0126541E-001
3	0	4.519231917253113E+004	-4.0136087E-001
3	0	4.522231917258701E+004	-4.0121579E-001
3	0	4.525231917264289E+004	-4.0126160E-001
3	0	4.528231917269877E+004	-4.0128452E-001
3	0	4.531231917275465E+004	-4.0135705E-001
3	0	4.534231917281053E+004	-4.0126544E-001
3	0	4.537231917286641E+004	-4.0129215E-001
3	0	4.540231917292229E+004	-4.0128070E-001
3	0	4.543231917297817E+004	-4.0130362E-001
3	0	4.546231917303405E+004	-4.0125781E-001
3	0	4.549231917308993E+004	-4.0128073E-001
3	0	4.552231917314581E+004	-4.0121961E-001
3	0	4.555231917320169E+004	-4.0114707E-001
3	0	4.558231917325757E+004	-4.0115088E-001
3	0	4.561231917331344E+004	-4.0121198E-001
3	0	4.564231917336932E+004	-4.0120816E-001
3	0	4.567231917342520E+004	-4.0116996E-001
3	0	4.570231917348108E+004	-4.0113178E-001
3	0	4.573231917353696E+004	-4.0118906E-001
3	0	4.576231917359284E+004	-4.0107453E-001
3	0	4.579231917364872E+004	-4.0113181E-001
3	0	4.582231917370460E+004	-4.0112418E-001
3	0	4.585231917376048E+004	-4.0113178E-001
3	0	4.588231917381636E+004	-4.0106690E-001
3	0	4.591231917387224E+004	-4.0112796E-001
3	0	4.594231917392812E+004	-4.0113562E-001
3	0	4.597231917398400E+004	-4.0115088E-001
3	0	4.600231917403988E+004	-4.0112415E-001
3	0	4.603231917409576E+004	-4.0106690E-001
3	0	4.606231917415163E+004	-4.0107453E-001
3	0	4.609231917420751E+004	-4.0104780E-001
3	0	4.612231917426339E+004	-4.0101343E-001
3	0	4.615231917431927E+004	-4.0105543E-001
3	0	4.618231917437515E+004	-4.0104398E-001
3	0	4.621231917443103E+004	-4.0106308E-001
3	0	4.624231917448691E+004	-4.0102488E-001
3	0	4.627231917454279E+004	-4.0099436E-001
3	0	4.630231917459867E+004	-4.0097526E-001
3	0	4.633231917465455E+004	-4.0101343E-001
3	0	4.636231917471043E+004	-4.0099436E-001
3	0	4.639231917476631E+004	-4.0098670E-001
3	0	4.642231917482219E+004	-4.0103251E-001
3	0	4.645231917487807E+004	-4.0100199E-001
3	0	4.648231917493395E+004	-4.0098673E-001
3	0	4.651231917498983E+004	-4.0101343E-001
3	0	4.654231917504570E+004	-4.0097144E-001
3	0	4.657231917510158E+004	-4.0091798E-001
3	0	4.660231917515746E+004	-4.0089127E-001
3	0	4.663231917521334E+004	-4.0087599E-001
3	0	4.666231917526922E+004	-4.0088743E-001
3	0	4.669231917532510E+004	-4.0089127E-001
3	0	4.672231917538098E+004	-4.0087980E-001
3	0	4.675231917543686E+004	-4.0088746E-001
3	0	4.678231917549274E+004	-4.0089890E-001
3	0	4.681231917554862E+004	-4.0090653E-001
3	0	4.684231917560450E+004	-4.0085310E-001
3	0	4.687231917566038E+004	-4.0089127E-001
3	0	4.690231917571626E+004	-4.0083018E-001
3	0	4.693231917577214E+004	-4.0081874E-001
3	0	4.696231917582802E+004	-4.0081871E-001
3	0	4.699231917588389E+004	-4.0085307E-001
3	0	4.702231917593977E+004	-4.0082633E-001
3	0	4.705231917599565E+004	-4.0079963E-001
3	0	4.708231917605153E+004	-4.0077674E-001
3	0	4.711231917610741E+004	-4.0074238E-001
3	0	4.714231917616329E+004	-4.0074238E-001
3	0	4.717231917621917E+004	-4.0075761E-001
3	0	4.720231917627505E+004	-4.0076143E-001
3	0	4.723231917633093E+004	-4.0078056E-001
3	0	4.726231917638681E+004	-4.0084544E-001
3	0	4.729231917644269E+004	-4.0073854E-001
3	0	4.732231917649857E+004	-4.0077290E-001
3	0	4.735231917655445E+004	-4.0069655E-001
3	0	4.738231917661033E+004	-4.0068129E-001
3	0	4.741231917666621E+004	-4.0065834E-001
3	0	4.744231917672209E+004	-4.0069273E-001
3	0	4.747231917677796E+004	-4.0062401E-001
3	0	4.750231917683384E+004	-4.0058202E-001
3	0	4.753231917688972E+004	-4.0060490E-001
3	0	4.756231917694560E+004	-4.0064692E-001
3	0	4.759231917700148E+004	-4.0058964E-001
3	0	4.762231917705736E+004	-4.0060493E-001
3	0	4.765231917711324E+004	-4.0060872E-001
3	0	4.768231917716912E+004	-4.0059349E-001
3	0	4.771231917722500E+004	-4.0055528E-001
3	0	4.774231917728088E+004	-4.0056291E-001
3	0	4.777231917733676E+004	-4.0054381E-001
3	0	4.780231917739264E+004	-4.0058580E-001
3	0	4.783231917744852E+004	-4.0055528E-001
3	0	4.786231917750440E+004	-4.0056288E-001
3	0	4.789231917756028E+004	-4.0055147E-001
3	0	4.792231917761615E+004	-4.0053999E-001
3	0	4.795231917767203E+004	-4.0048656E-001
3	0	4.798231917772791E+004	-4.0046746E-001
3	0	4.801231917778379E+004	-4.0043312E-001
3	0	4.804231917783967E+004	-4.0046364E-001
3	0	4.807231917789555E+004	-4.0044835E-001
3	0	4.810231917795143E+004	-4.0045601E-001
3	0	4.813231917800731E+004	-4.0043691E-001
3	0	4.816231917806319E+004	-4.0042165E-001
3	0	4.819231917811907E+004	-4.0036818E-001
3	0	4.822231917817495E+004	-4.0039110E-001
3	0	4.824296477821340E+004	-4.0037966E-001