EC-Lab ASCII FILE
Nb header lines : 48                          

Open Circuit Voltage

Run on channel : 4 (SN 13148)
User : 
Electrode connection : standard
Potential control : Ewe
Ewe ctrl range : min = -1.00 V, max = 1.00 V
Ewe,I filtering : 5 Hz
Safety Limits :
	Do not start on E overload
Channel : Floating
Acquisition started on : 06/24/2024 21:42:04.718
Loaded Setting File :  NONE
Saved on :
	File : 1540_A_09_OCV_C04.mpr
	Directory : C:\Users\mAtsuhitA\Desktop\Oyafuso\20240624_???????4\
	Host : 192.109.209.100
Device : VSP-300 (SN 0960)
Address : USB
EC-Lab for windows v11.50 (software)
Internet server v11.50 (firmware)
Command interpretor v11.50 (firmware)
Electrode material : 
Initial state : 
Electrolyte : 
Comments : 
Cable : standard
Electrode surface area : 0.001 cm2
Characteristic mass : 0.001 g
Equivalent Weight : 0.000 g/eq.
Density : 0.000 g/cm3
Volume (V) : 0.001 cm3
Text export
   Mode : Standard
   Time format : Elapsed
Cycle Definition : Charge/Discharge alternance
tR (h:m:s)          5:00:0.0000         
dER/dt (mV/h)       0.0                 
record              Ewe                 
dER (mV)            10.00               
dtR (s)             30.0000             
E range min (V)     -1.000              
E range max (V)     1.000               

mode	error	time/s	Ewe/V	
3	0	5.023531818192441E+004	-3.6140220E-004
3	0	5.023559618192492E+004	-1.0564134E-002
3	0	5.023593958192552E+004	-2.0577928E-002
3	0	5.023635578192640E+004	-3.0646937E-002
3	0	5.023683438192715E+004	-4.0650133E-002
3	0	5.023738038192829E+004	-5.0668605E-002
3	0	5.023799018192943E+004	-6.0683258E-002
3	0	5.023865518193063E+004	-7.0701726E-002
3	0	5.023938058193203E+004	-8.0712557E-002
3	0	5.024015038193343E+004	-9.0723395E-002
3	0	5.024096038193488E+004	-1.0074569E-001
3	0	5.024180518193654E+004	-1.1074888E-001
3	0	5.024267958193818E+004	-1.2075972E-001
3	0	5.024357038193985E+004	-1.3076673E-001
3	0	5.024447978194151E+004	-1.4076993E-001
3	0	5.024540238194316E+004	-1.5079221E-001
3	0	5.024633718194487E+004	-1.6081069E-001
3	0	5.024728558194666E+004	-1.7081387E-001
3	0	5.024825698194851E+004	-1.8082854E-001
3	0	5.024924638195042E+004	-1.9085084E-001
3	0	5.025027298195229E+004	-2.0089602E-001
3	0	5.025133858195425E+004	-2.1091449E-001
3	0	5.025245318195640E+004	-2.2091770E-001
3	0	5.025363818195858E+004	-2.3095143E-001
3	0	5.025490858196083E+004	-2.4095845E-001
3	0	5.025630158196349E+004	-2.5096548E-001
3	0	5.025787198196648E+004	-2.6096869E-001
3	0	5.025968618196982E+004	-2.7097949E-001
3	0	5.026188718197399E+004	-2.8098652E-001
3	0	5.026464578197908E+004	-2.9098970E-001
3	0	5.026833778198587E+004	-3.0099672E-001
3	0	5.027358878199570E+004	-3.1100374E-001
3	0	5.028156458201050E+004	-3.2102218E-001
3	0	5.029469858203502E+004	-3.3102921E-001
3	0	5.031822658207882E+004	-3.4103242E-001
3	0	5.034822658213470E+004	-3.4797740E-001
3	0	5.037822658219057E+004	-3.5244828E-001
3	0	5.040822658224645E+004	-3.5566688E-001
3	0	5.043822658230233E+004	-3.5811421E-001
3	0	5.046822658235821E+004	-3.6014542E-001
3	0	5.049822658241409E+004	-3.6188641E-001
3	0	5.052822658246997E+004	-3.6334872E-001
3	0	5.055822658252585E+004	-3.6472321E-001
3	0	5.058822658258173E+004	-3.6582279E-001
3	0	5.061822658263761E+004	-3.6686510E-001
3	0	5.064822658269349E+004	-3.6786541E-001
3	0	5.067822658274937E+004	-3.6877412E-001
3	0	5.070822658280525E+004	-3.6956447E-001
3	0	5.073822658286113E+004	-3.7035096E-001
3	0	5.076822658291701E+004	-3.7109548E-001
3	0	5.079822658297289E+004	-3.7167582E-001
3	0	5.082822658302877E+004	-3.7235925E-001
3	0	5.085822658308464E+004	-3.7297776E-001
3	0	5.088822658314052E+004	-3.7354663E-001
3	0	5.091822658319640E+004	-3.7404680E-001
3	0	5.094822658325228E+004	-3.7455457E-001
3	0	5.097822658330816E+004	-3.7499365E-001
3	0	5.100822658336404E+004	-3.7541747E-001
3	0	5.103822658341992E+004	-3.7581071E-001
3	0	5.106822658347580E+004	-3.7626889E-001
3	0	5.109822658353168E+004	-3.7660104E-001
3	0	5.112822658358756E+004	-3.7695995E-001
3	0	5.115822658364344E+004	-3.7731120E-001
3	0	5.118822658369932E+004	-3.7772354E-001
3	0	5.121822658375520E+004	-3.7798318E-001
3	0	5.124822658381108E+004	-3.7834206E-001
3	0	5.127822658386696E+004	-3.7857497E-001
3	0	5.130822658392283E+004	-3.7886512E-001
3	0	5.133822658397871E+004	-3.7915531E-001
3	0	5.136822658403459E+004	-3.7941492E-001
3	0	5.139822658409047E+004	-3.7972420E-001
3	0	5.142822658414635E+004	-3.7989599E-001
3	0	5.145822658420223E+004	-3.8012508E-001
3	0	5.148822658425811E+004	-3.8038853E-001
3	0	5.151822658431399E+004	-3.8062140E-001
3	0	5.154822658436987E+004	-3.8081232E-001
3	0	5.157822658442575E+004	-3.8100705E-001
3	0	5.160822658448163E+004	-3.8119793E-001
3	0	5.163822658453751E+004	-3.8135830E-001
3	0	5.166822658459339E+004	-3.8157976E-001
3	0	5.169822658464927E+004	-3.8177067E-001
3	0	5.172822658470515E+004	-3.8198063E-001
3	0	5.175822658476103E+004	-3.8215244E-001
3	0	5.178822658481690E+004	-3.8229370E-001
3	0	5.181822658487278E+004	-3.8250369E-001
3	0	5.184822658492866E+004	-3.8269079E-001
3	0	5.187822658498454E+004	-3.8282061E-001
3	0	5.190822658504042E+004	-3.8294277E-001
3	0	5.193822658509630E+004	-3.8309169E-001
3	0	5.196822658515218E+004	-3.8328639E-001
3	0	5.199822658520806E+004	-3.8335511E-001
3	0	5.202822658526394E+004	-3.8355365E-001
3	0	5.205822658531982E+004	-3.8369873E-001
3	0	5.208822658537570E+004	-3.8382092E-001
3	0	5.211822658543158E+004	-3.8391638E-001
3	0	5.214822658548746E+004	-3.8403472E-001
3	0	5.217822658554334E+004	-3.8416073E-001
3	0	5.220822658559922E+004	-3.8433635E-001
3	0	5.223822658565509E+004	-3.8442415E-001
3	0	5.226822658571097E+004	-3.8442796E-001
3	0	5.229822658576685E+004	-3.8458452E-001
3	0	5.232822658582273E+004	-3.8470671E-001
3	0	5.235822658587861E+004	-3.8477543E-001
3	0	5.238822658593449E+004	-3.8484031E-001
3	0	5.241822658599037E+004	-3.8491669E-001
3	0	5.244822658604625E+004	-3.8503122E-001
3	0	5.247822658610213E+004	-3.8509995E-001
3	0	5.250822658615801E+004	-3.8521451E-001
3	0	5.253822658621389E+004	-3.8527942E-001
3	0	5.256822658626977E+004	-3.8535959E-001
3	0	5.259822658632565E+004	-3.8547030E-001
3	0	5.262822658638153E+004	-3.8554665E-001
3	0	5.265822658643741E+004	-3.8559246E-001
3	0	5.268822658649329E+004	-3.8569936E-001
3	0	5.271822658654916E+004	-3.8573757E-001
3	0	5.274822658660504E+004	-3.8574901E-001
3	0	5.277822658666092E+004	-3.8583300E-001
3	0	5.280822658671680E+004	-3.8595137E-001
3	0	5.283822658677268E+004	-3.8598573E-001
3	0	5.286822658682856E+004	-3.8601628E-001
3	0	5.289822658688444E+004	-3.8607737E-001
3	0	5.292822658694032E+004	-3.8614991E-001
3	0	5.295822658699620E+004	-3.8624156E-001
3	0	5.298822658705208E+004	-3.8627207E-001
3	0	5.301822658710796E+004	-3.8628355E-001
3	0	5.304822658716384E+004	-3.8637134E-001
3	0	5.307822658721972E+004	-3.8651642E-001
3	0	5.310822658727560E+004	-3.8655078E-001
3	0	5.313822658733148E+004	-3.8663098E-001
3	0	5.316822658738735E+004	-3.8666534E-001
3	0	5.319822658744323E+004	-3.8674170E-001
3	0	5.322822658749911E+004	-3.8678750E-001
3	0	5.325822658755499E+004	-3.8684097E-001
3	0	5.328822658761087E+004	-3.8690588E-001
3	0	5.331822658766675E+004	-3.8692880E-001
3	0	5.334822658772263E+004	-3.8699368E-001
3	0	5.337822658777851E+004	-3.8703185E-001
3	0	5.340822658783439E+004	-3.8713112E-001
3	0	5.343822658789027E+004	-3.8719222E-001
3	0	5.346822658794615E+004	-3.8723040E-001
3	0	5.349822658800203E+004	-3.8730294E-001
3	0	5.352822658805791E+004	-3.8736403E-001
3	0	5.355822658811379E+004	-3.8731819E-001
3	0	5.358822658816967E+004	-3.8740602E-001
3	0	5.361822658822555E+004	-3.8745183E-001
3	0	5.364822658828142E+004	-3.8742512E-001
3	0	5.367822658833730E+004	-3.8747478E-001
3	0	5.370822658839318E+004	-3.8750914E-001
3	0	5.373822658844906E+004	-3.8752818E-001
3	0	5.376822658850494E+004	-3.8754728E-001
3	0	5.379822658856082E+004	-3.8754347E-001
3	0	5.382822658861670E+004	-3.8761601E-001
3	0	5.385822658867258E+004	-3.8765419E-001
3	0	5.388822658872846E+004	-3.8763511E-001
3	0	5.391822658878434E+004	-3.8766947E-001
3	0	5.394822658884022E+004	-3.8775730E-001
3	0	5.397822658889610E+004	-3.8776112E-001
3	0	5.400822658895198E+004	-3.8778785E-001
3	0	5.403822658900786E+004	-3.8782218E-001
3	0	5.406822658906374E+004	-3.8784128E-001
3	0	5.409822658911961E+004	-3.8783363E-001
3	0	5.412822658917549E+004	-3.8787568E-001
3	0	5.415822658923137E+004	-3.8789091E-001
3	0	5.418822658928725E+004	-3.8789853E-001
3	0	5.421822658934313E+004	-3.8785273E-001
3	0	5.424822658939901E+004	-3.8794437E-001
3	0	5.427822658945489E+004	-3.8799784E-001
3	0	5.430822658951077E+004	-3.8800165E-001
3	0	5.433822658956665E+004	-3.8804364E-001
3	0	5.436822658962253E+004	-3.8803983E-001
3	0	5.439822658967841E+004	-3.8810855E-001
3	0	5.442822658973429E+004	-3.8811237E-001
3	0	5.445822658979017E+004	-3.8808945E-001
3	0	5.448822658984605E+004	-3.8808563E-001
3	0	5.451822658990193E+004	-3.8812000E-001
3	0	5.454822658995781E+004	-3.8810089E-001
3	0	5.457822659001368E+004	-3.8811618E-001
3	0	5.460822659006956E+004	-3.8812765E-001
3	0	5.463822659012544E+004	-3.8812384E-001
3	0	5.466822659018132E+004	-3.8814291E-001
3	0	5.469822659023720E+004	-3.8818109E-001
3	0	5.472822659029308E+004	-3.8820016E-001
3	0	5.475822659034896E+004	-3.8825747E-001
3	0	5.478822659040484E+004	-3.8827652E-001
3	0	5.481822659046072E+004	-3.8828036E-001
3	0	5.484822659051660E+004	-3.8831091E-001
3	0	5.487822659057248E+004	-3.8838345E-001
3	0	5.490822659062836E+004	-3.8839871E-001
3	0	5.493822659068424E+004	-3.8838726E-001
3	0	5.496822659074012E+004	-3.8843307E-001
3	0	5.499822659079600E+004	-3.8842925E-001
3	0	5.502822659085187E+004	-3.8841018E-001
3	0	5.505822659090775E+004	-3.8842544E-001
3	0	5.508822659096363E+004	-3.8844451E-001
3	0	5.511822659101951E+004	-3.8839489E-001
3	0	5.514822659107539E+004	-3.8844451E-001
3	0	5.517822659113127E+004	-3.8849798E-001
3	0	5.520822659118715E+004	-3.8854378E-001
3	0	5.523822659124303E+004	-3.8852853E-001
3	0	5.526822659129891E+004	-3.8858962E-001
3	0	5.529822659135479E+004	-3.8861254E-001
3	0	5.532822659141067E+004	-3.8861251E-001
3	0	5.535822659146655E+004	-3.8866979E-001
3	0	5.538822659152243E+004	-3.8864306E-001
3	0	5.541822659157831E+004	-3.8868508E-001
3	0	5.544822659163419E+004	-3.8866216E-001
3	0	5.547822659169007E+004	-3.8868508E-001
3	0	5.550822659174594E+004	-3.8871944E-001
3	0	5.553822659180182E+004	-3.8866979E-001
3	0	5.556822659185770E+004	-3.8864309E-001
3	0	5.559822659191358E+004	-3.8866216E-001
3	0	5.562822659196946E+004	-3.8861635E-001
3	0	5.565822659202534E+004	-3.8863924E-001
3	0	5.568822659208122E+004	-3.8868508E-001
3	0	5.571822659213710E+004	-3.8871178E-001
3	0	5.574822659219298E+004	-3.8874996E-001
3	0	5.577822659224886E+004	-3.8874996E-001
3	0	5.580822659230474E+004	-3.8878432E-001
3	0	5.583822659236062E+004	-3.8876143E-001
3	0	5.586822659241650E+004	-3.8875377E-001
3	0	5.589822659247238E+004	-3.8877290E-001
3	0	5.592822659252826E+004	-3.8882631E-001
3	0	5.595822659258413E+004	-3.8879961E-001
3	0	5.598822659264001E+004	-3.8880342E-001
3	0	5.601822659269589E+004	-3.8876525E-001
3	0	5.604822659275177E+004	-3.8881487E-001
3	0	5.607822659280765E+004	-3.8881868E-001
3	0	5.610822659286353E+004	-3.8886067E-001
3	0	5.613822659291941E+004	-3.8880342E-001
3	0	5.616822659297529E+004	-3.8889506E-001
3	0	5.619822659303117E+004	-3.8889122E-001
3	0	5.622822659308705E+004	-3.8896379E-001
3	0	5.625822659314293E+004	-3.8890269E-001
3	0	5.628822659319881E+004	-3.8895616E-001
3	0	5.631822659325469E+004	-3.8896760E-001
3	0	5.634822659331057E+004	-3.8893706E-001
3	0	5.637822659336645E+004	-3.8893324E-001
3	0	5.640822659342233E+004	-3.8890651E-001
3	0	5.643822659347820E+004	-3.8891795E-001
3	0	5.646822659353408E+004	-3.8891414E-001
3	0	5.649822659358996E+004	-3.8891035E-001
3	0	5.652822659364584E+004	-3.8888359E-001
3	0	5.655822659370172E+004	-3.8889506E-001
3	0	5.658822659375760E+004	-3.8893324E-001
3	0	5.661822659381348E+004	-3.8892558E-001
3	0	5.664822659386936E+004	-3.8893703E-001
3	0	5.667822659392524E+004	-3.8894469E-001
3	0	5.670822659398112E+004	-3.8894850E-001
3	0	5.673822659403700E+004	-3.8893703E-001
3	0	5.676822659409288E+004	-3.8894850E-001
3	0	5.679822659414876E+004	-3.8890269E-001
3	0	5.682822659420464E+004	-3.8890269E-001
3	0	5.685822659426052E+004	-3.8891032E-001
3	0	5.688822659431639E+004	-3.8894850E-001
3	0	5.691822659437227E+004	-3.8893706E-001
3	0	5.694822659442815E+004	-3.8891032E-001
3	0	5.697822659448403E+004	-3.8888359E-001
3	0	5.700822659453991E+004	-3.8881868E-001
3	0	5.703822659459579E+004	-3.8889888E-001
3	0	5.706822659465167E+004	-3.8891795E-001
3	0	5.709822659470755E+004	-3.8884160E-001
3	0	5.712822659476343E+004	-3.8883397E-001
3	0	5.715822659481931E+004	-3.8886833E-001
3	0	5.718822659487519E+004	-3.8889125E-001
3	0	5.721822659493107E+004	-3.8885689E-001
3	0	5.724822659498695E+004	-3.8887978E-001
3	0	5.727822659504283E+004	-3.8883397E-001
3	0	5.730822659509871E+004	-3.8886452E-001
3	0	5.733822659515459E+004	-3.8890269E-001
3	0	5.736822659521046E+004	-3.8888741E-001
3	0	5.739822659526634E+004	-3.8889888E-001
3	0	5.742822659532222E+004	-3.8881487E-001
3	0	5.745822659537810E+004	-3.8884160E-001
3	0	5.748822659543398E+004	-3.8886833E-001
3	0	5.751822659548986E+004	-3.8882253E-001
3	0	5.754822659554574E+004	-3.8879579E-001
3	0	5.757822659560162E+004	-3.8880342E-001
3	0	5.760822659565750E+004	-3.8883397E-001
3	0	5.763822659571338E+004	-3.8888741E-001
3	0	5.766822659576926E+004	-3.8882631E-001
3	0	5.769822659582514E+004	-3.8889888E-001
3	0	5.772822659588102E+004	-3.8884160E-001
3	0	5.775822659593690E+004	-3.8882634E-001
3	0	5.778822659599278E+004	-3.8881871E-001
3	0	5.781822659604865E+004	-3.8883778E-001
3	0	5.784822659610453E+004	-3.8882631E-001
3	0	5.787822659616041E+004	-3.8882250E-001
3	0	5.790822659621629E+004	-3.8891414E-001
3	0	5.793822659627217E+004	-3.8885686E-001
3	0	5.796822659632805E+004	-3.8887215E-001
3	0	5.799822659638393E+004	-3.8891032E-001
3	0	5.802822659643981E+004	-3.8892558E-001
3	0	5.805822659649569E+004	-3.8887215E-001
3	0	5.808822659655157E+004	-3.8896760E-001
3	0	5.811822659660745E+004	-3.8890269E-001
3	0	5.814822659666333E+004	-3.8892180E-001
3	0	5.817822659671921E+004	-3.8891035E-001
3	0	5.820822659677509E+004	-3.8890269E-001
3	0	5.823822659683097E+004	-3.8891798E-001
3	0	5.826822659688685E+004	-3.8891798E-001
3	0	5.829822659694272E+004	-3.8894090E-001
3	0	5.832822659699860E+004	-3.8890651E-001
3	0	5.835822659705448E+004	-3.8893324E-001
3	0	5.838822659711036E+004	-3.8897523E-001
3	0	5.841822659716624E+004	-3.8895234E-001
3	0	5.844822659722212E+004	-3.8892943E-001
3	0	5.847822659727800E+004	-3.8895997E-001
3	0	5.850822659733388E+004	-3.8894853E-001
3	0	5.853822659738976E+004	-3.8892943E-001
3	0	5.856822659744564E+004	-3.8893324E-001
3	0	5.859822659750152E+004	-3.8895616E-001
3	0	5.862822659755740E+004	-3.8894472E-001
3	0	5.865822659761328E+004	-3.8892177E-001
3	0	5.868822659766916E+004	-3.8889125E-001
3	0	5.871822659772504E+004	-3.8892177E-001
3	0	5.874822659778091E+004	-3.8891414E-001
3	0	5.877822659783679E+004	-3.8891798E-001
3	0	5.880822659789267E+004	-3.8888359E-001
3	0	5.883822659794855E+004	-3.8886452E-001
3	0	5.886822659800443E+004	-3.8883016E-001
3	0	5.889822659806031E+004	-3.8889506E-001
3	0	5.892822659811619E+004	-3.8890269E-001
3	0	5.895822659817207E+004	-3.8890651E-001
3	0	5.898822659822795E+004	-3.8886452E-001
3	0	5.901822659828383E+004	-3.8890651E-001
3	0	5.904822659833971E+004	-3.8888359E-001
3	0	5.907822659839559E+004	-3.8881868E-001
3	0	5.910822659845147E+004	-3.8881871E-001
3	0	5.913822659850735E+004	-3.8873851E-001
3	0	5.916822659856323E+004	-3.8874233E-001
3	0	5.919822659861911E+004	-3.8874996E-001
3	0	5.922822659867498E+004	-3.8871178E-001
3	0	5.925822659873086E+004	-3.8867745E-001
3	0	5.928822659878674E+004	-3.8868123E-001
3	0	5.931822659884262E+004	-3.8873851E-001
3	0	5.934822659889850E+004	-3.8868126E-001
3	0	5.937822659895438E+004	-3.8868126E-001
3	0	5.940822659901026E+004	-3.8869652E-001
3	0	5.943822659906614E+004	-3.8869652E-001
3	0	5.946822659912202E+004	-3.8868889E-001
3	0	5.949822659917790E+004	-3.8868508E-001
3	0	5.952822659923378E+004	-3.8868123E-001
3	0	5.955822659928966E+004	-3.8868508E-001
3	0	5.958822659934554E+004	-3.8866597E-001
3	0	5.961822659940142E+004	-3.8863161E-001
3	0	5.964822659945730E+004	-3.8866597E-001
3	0	5.967822659951317E+004	-3.8860869E-001
3	0	5.970822659956905E+004	-3.8862014E-001
3	0	5.973822659962493E+004	-3.8857815E-001
3	0	5.976822659968081E+004	-3.8855526E-001
3	0	5.979822659973669E+004	-3.8857052E-001
3	0	5.982822659979257E+004	-3.8855144E-001
3	0	5.985822659984845E+004	-3.8850561E-001
3	0	5.988822659990433E+004	-3.8856289E-001
3	0	5.991822659996021E+004	-3.8853997E-001
3	0	5.994822660001609E+004	-3.8850179E-001
3	0	5.997822660007197E+004	-3.8850564E-001
3	0	6.000822660012785E+004	-3.8850942E-001
3	0	6.003822660018373E+004	-3.8843307E-001
3	0	6.006822660023961E+004	-3.8839871E-001
3	0	6.009822660029549E+004	-3.8836819E-001
3	0	6.012822660035137E+004	-3.8837963E-001
3	0	6.015822660040724E+004	-3.8833761E-001
3	0	6.018822660046312E+004	-3.8833761E-001
3	0	6.021822660051900E+004	-3.8834143E-001
3	0	6.024822660057488E+004	-3.8831469E-001
3	0	6.027822660063076E+004	-3.8825744E-001
3	0	6.030822660068664E+004	-3.8828036E-001
3	0	6.033822660074252E+004	-3.8831472E-001
3	0	6.036822660079840E+004	-3.8830328E-001
3	0	6.039822660085428E+004	-3.8827652E-001
3	0	6.042822660091016E+004	-3.8831091E-001
3	0	6.045822660096604E+004	-3.8831091E-001
3	0	6.048822660102192E+004	-3.8826507E-001
3	0	6.051822660107780E+004	-3.8831088E-001
3	0	6.054822660113368E+004	-3.8829944E-001
3	0	6.057822660118956E+004	-3.8818491E-001
3	0	6.060822660124543E+004	-3.8820016E-001
3	0	6.063822660130131E+004	-3.8822308E-001
3	0	6.066822660135719E+004	-3.8819635E-001
3	0	6.069822660141307E+004	-3.8817346E-001
3	0	6.072822660146895E+004	-3.8818109E-001
3	0	6.075822660152483E+004	-3.8815054E-001
3	0	6.078822660158071E+004	-3.8813525E-001
3	0	6.081822660163659E+004	-3.8814673E-001
3	0	6.084822660169247E+004	-3.8820782E-001
3	0	6.087822660174835E+004	-3.8817728E-001
3	0	6.090822660180423E+004	-3.8817728E-001
3	0	6.093822660186011E+004	-3.8816962E-001
3	0	6.096822660191599E+004	-3.8821164E-001
3	0	6.099822660197187E+004	-3.8814673E-001
3	0	6.102822660202775E+004	-3.8813907E-001
3	0	6.105822660208363E+004	-3.8814673E-001
3	0	6.108822660213950E+004	-3.8804746E-001
3	0	6.111822660219538E+004	-3.8806656E-001
3	0	6.114822660225126E+004	-3.8805509E-001
3	0	6.117822660230714E+004	-3.8805509E-001
3	0	6.120822660236302E+004	-3.8800928E-001
3	0	6.123822660241890E+004	-3.8799021E-001
3	0	6.126822660247478E+004	-3.8800928E-001
3	0	6.129822660253066E+004	-3.8800928E-001
3	0	6.132822660258654E+004	-3.8802454E-001
3	0	6.135822660264242E+004	-3.8799781E-001
3	0	6.138822660269830E+004	-3.8798255E-001
3	0	6.141822660275418E+004	-3.8800928E-001
3	0	6.144822660281006E+004	-3.8798636E-001
3	0	6.147822660286594E+004	-3.8799399E-001
3	0	6.150822660292182E+004	-3.8799399E-001
3	0	6.153822660297769E+004	-3.8801691E-001
3	0	6.156822660303357E+004	-3.8798636E-001
3	0	6.159822660308945E+004	-3.8789472E-001
3	0	6.162822660314533E+004	-3.8789856E-001
3	0	6.165822660320121E+004	-3.8791764E-001
3	0	6.168822660325709E+004	-3.8786802E-001
3	0	6.171822660331297E+004	-3.8789856E-001
3	0	6.174822660336885E+004	-3.8784510E-001
3	0	6.177822660342473E+004	-3.8786802E-001
3	0	6.180822660348061E+004	-3.8787565E-001
3	0	6.183822660353649E+004	-3.8786417E-001
3	0	6.186822660359237E+004	-3.8790619E-001
3	0	6.189822660364825E+004	-3.8779929E-001
3	0	6.192822660370413E+004	-3.8787565E-001
3	0	6.195822660376001E+004	-3.8790238E-001
3	0	6.198822660381589E+004	-3.8784510E-001
3	0	6.201822660387176E+004	-3.8792145E-001
3	0	6.204822660392764E+004	-3.8785657E-001
3	0	6.207822660398352E+004	-3.8781074E-001
3	0	6.210822660403940E+004	-3.8780314E-001
3	0	6.213822660409528E+004	-3.8779545E-001
3	0	6.216822660415116E+004	-3.8780692E-001
3	0	6.219822660420704E+004	-3.8781455E-001
3	0	6.222822660426292E+004	-3.8778400E-001
3	0	6.225822660431880E+004	-3.8779929E-001
3	0	6.228822660437468E+004	-3.8788712E-001
3	0	6.231822660443056E+004	-3.8789472E-001
3	0	6.234822660448644E+004	-3.8784891E-001
3	0	6.237822660454232E+004	-3.8782218E-001
3	0	6.240822660459820E+004	-3.8779929E-001
3	0	6.243822660465408E+004	-3.8776875E-001
3	0	6.246822660470995E+004	-3.8774964E-001
3	0	6.249822660476583E+004	-3.8774964E-001
3	0	6.252822660482171E+004	-3.8772675E-001
3	0	6.255822660487759E+004	-3.8766566E-001
3	0	6.258822660493347E+004	-3.8764274E-001
3	0	6.261822660498935E+004	-3.8761601E-001
3	0	6.264822660504523E+004	-3.8762364E-001
3	0	6.267822660510111E+004	-3.8757402E-001
3	0	6.270822660515699E+004	-3.8758931E-001
3	0	6.273822660521287E+004	-3.8764656E-001
3	0	6.276822660526875E+004	-3.8755491E-001
3	0	6.279822660532463E+004	-3.8757402E-001
3	0	6.282822660538051E+004	-3.8753584E-001
3	0	6.285822660543639E+004	-3.8753203E-001
3	0	6.288822660549227E+004	-3.8750529E-001
3	0	6.291822660554815E+004	-3.8745183E-001
3	0	6.294822660560402E+004	-3.8751295E-001
3	0	6.297822660565990E+004	-3.8743275E-001
3	0	6.300822660571578E+004	-3.8742512E-001
3	0	6.303822660577166E+004	-3.8737166E-001
3	0	6.306822660582754E+004	-3.8736403E-001
3	0	6.309822660588342E+004	-3.8730294E-001
3	0	6.312822660593930E+004	-3.8734877E-001
3	0	6.315822660599518E+004	-3.8734493E-001
3	0	6.318822660605106E+004	-3.8728768E-001
3	0	6.321822660610694E+004	-3.8722277E-001
3	0	6.324822660616282E+004	-3.8731819E-001
3	0	6.327822660621870E+004	-3.8724950E-001
3	0	6.330822660627458E+004	-3.8720366E-001
3	0	6.333822660633046E+004	-3.8723040E-001
3	0	6.336822660638634E+004	-3.8721895E-001
3	0	6.339822660644221E+004	-3.8716933E-001
3	0	6.342822660649809E+004	-3.8708913E-001
3	0	6.345822660655397E+004	-3.8712734E-001
3	0	6.348822660660985E+004	-3.8704714E-001
3	0	6.351822660666573E+004	-3.8702041E-001
3	0	6.354822660672161E+004	-3.8698986E-001
3	0	6.357822660677749E+004	-3.8696313E-001
3	0	6.360822660683337E+004	-3.8697839E-001
3	0	6.363822660688925E+004	-3.8692880E-001
3	0	6.366822660694513E+004	-3.8689059E-001
3	0	6.369822660700101E+004	-3.8692877E-001
3	0	6.372822660705689E+004	-3.8687915E-001
3	0	6.375822660711277E+004	-3.8691351E-001
3	0	6.378822660716865E+004	-3.8686007E-001
3	0	6.381822660722453E+004	-3.8687530E-001
3	0	6.384822660728041E+004	-3.8683715E-001
3	0	6.387822660733628E+004	-3.8681042E-001
3	0	6.390822660739216E+004	-3.8683334E-001
3	0	6.393822660744804E+004	-3.8680661E-001
3	0	6.396822660750392E+004	-3.8680279E-001
3	0	6.399822660755980E+004	-3.8677225E-001
3	0	6.402822660761568E+004	-3.8675696E-001
3	0	6.405822660767156E+004	-3.8677225E-001
3	0	6.408822660772744E+004	-3.8676077E-001
3	0	6.411822660778332E+004	-3.8674933E-001
3	0	6.414822660783920E+004	-3.8674170E-001
3	0	6.417822660789508E+004	-3.8676843E-001
3	0	6.420822660795096E+004	-3.8676843E-001
3	0	6.423822660800684E+004	-3.8676462E-001
3	0	6.426822660806272E+004	-3.8679516E-001
3	0	6.429822660811860E+004	-3.8678750E-001
3	0	6.432822660817447E+004	-3.8680279E-001
3	0	6.435822660823035E+004	-3.8676459E-001
3	0	6.438822660828623E+004	-3.8680661E-001
3	0	6.441822660834211E+004	-3.8669971E-001
3	0	6.444822660839799E+004	-3.8667679E-001
3	0	6.447822660845387E+004	-3.8665387E-001
3	0	6.450822660850975E+004	-3.8660425E-001
3	0	6.453822660856563E+004	-3.8658133E-001
3	0	6.456822660862151E+004	-3.8661188E-001
3	0	6.459822660867739E+004	-3.8658133E-001
3	0	6.462822660873327E+004	-3.8655460E-001
3	0	6.465822660878915E+004	-3.8657752E-001
3	0	6.468822660884503E+004	-3.8654318E-001
3	0	6.471822660890091E+004	-3.8652787E-001
3	0	6.474822660895679E+004	-3.8655463E-001
3	0	6.477822660901267E+004	-3.8654315E-001
3	0	6.480822660906854E+004	-3.8653553E-001
3	0	6.483822660912442E+004	-3.8654697E-001
3	0	6.486822660918030E+004	-3.8653168E-001
3	0	6.489822660923618E+004	-3.8650116E-001
3	0	6.492822660929206E+004	-3.8647443E-001
3	0	6.495822660934794E+004	-3.8642481E-001
3	0	6.498822660940394E+004	-3.8643244E-001
3	0	6.501822660945982E+004	-3.8635227E-001
3	0	6.504822660951570E+004	-3.8635227E-001
3	0	6.507822660957158E+004	-3.8632551E-001
3	0	6.510822660962745E+004	-3.8636371E-001
3	0	6.513822660968333E+004	-3.8631409E-001
3	0	6.516822660973921E+004	-3.8632554E-001
3	0	6.519822660979509E+004	-3.8635224E-001
3	0	6.522822660985097E+004	-3.8633317E-001
3	0	6.525822660990685E+004	-3.8637897E-001
3	0	6.528822660996273E+004	-3.8637897E-001
3	0	6.531822661001861E+004	-3.8639042E-001
3	0	6.534822661007449E+004	-3.8634461E-001
3	0	6.537822661013037E+004	-3.8625300E-001
3	0	6.540822661018625E+004	-3.8626444E-001
3	0	6.543822661024213E+004	-3.8623008E-001
3	0	6.546822661029801E+004	-3.8622245E-001
3	0	6.549822661035389E+004	-3.8618043E-001
3	0	6.552822661040977E+004	-3.8616136E-001
3	0	6.555822680514197E+004	-3.8612321E-001
3	0	6.558822699806950E+004	-3.8610789E-001
3	0	6.561822719093558E+004	-3.8609645E-001
3	0	6.564822738388175E+004	-3.8607737E-001
3	0	6.567822757675103E+004	-3.8603920E-001
3	0	6.570822776967578E+004	-3.8602391E-001
3	0	6.573822796257166E+004	-3.8603154E-001
3	0	6.576822815546987E+004	-3.8603538E-001
3	0	6.579822834839229E+004	-3.8603917E-001
3	0	6.582822854126384E+004	-3.8601628E-001
3	0	6.585822873420990E+004	-3.8602772E-001
3	0	6.588822892707353E+004	-3.8606974E-001
3	0	6.591822912000329E+004	-3.8605064E-001
3	0	6.594822931289417E+004	-3.8600484E-001
3	0	6.597822950579738E+004	-3.8603535E-001
3	0	6.600822969871503E+004	-3.8597044E-001
3	0	6.603822989159171E+004	-3.8595137E-001
3	0	6.606823008453590E+004	-3.8591701E-001
3	0	6.609823027739767E+004	-3.8589790E-001
3	0	6.612823047033278E+004	-3.8586354E-001
3	0	6.615823066321807E+004	-3.8582540E-001
3	0	6.618823085612641E+004	-3.8585210E-001
3	0	6.621823104903847E+004	-3.8585591E-001
3	0	6.624823124192026E+004	-3.8581011E-001
3	0	6.627823143485934E+004	-3.8581777E-001
3	0	6.630823162772111E+004	-3.8581777E-001
3	0	6.633823182066157E+004	-3.8578719E-001
3	0	6.636823201354197E+004	-3.8580629E-001
3	0	6.639823220645543E+004	-3.8579100E-001
3	0	6.642823239936237E+004	-3.8577193E-001
3	0	6.645823259224894E+004	-3.8576430E-001
3	0	6.648823278518254E+004	-3.8573757E-001
3	0	6.651823297804396E+004	-3.8571465E-001
3	0	6.654823317098920E+004	-3.8571846E-001
3	0	6.657823336386459E+004	-3.8571846E-001
3	0	6.660823355678329E+004	-3.8566118E-001
3	0	6.663823374968523E+004	-3.8565356E-001
3	0	6.666823394257738E+004	-3.8569173E-001
3	0	6.669823413550585E+004	-3.8566500E-001
3	0	6.672823432837146E+004	-3.8568029E-001
3	0	6.675823452131762E+004	-3.8561919E-001
3	0	6.678823471418789E+004	-3.8561538E-001
3	0	6.681823490711168E+004	-3.8559249E-001
3	0	6.684823510000895E+004	-3.8559246E-001
3	0	6.687823529290623E+004	-3.8560012E-001
3	0	6.690823548583000E+004	-3.8553521E-001
3	0	6.693823567870073E+004	-3.8548175E-001
3	0	6.696823587164783E+004	-3.8548175E-001
3	0	6.699823606451275E+004	-3.8546264E-001
3	0	6.702823625744169E+004	-3.8541305E-001
3	0	6.705823645033338E+004	-3.8538632E-001
3	0	6.708823664323566E+004	-3.8540539E-001
3	0	6.711823683615378E+004	-3.8533285E-001
3	0	6.714823702902952E+004	-3.8531375E-001
3	0	6.717823722197465E+004	-3.8522595E-001
3	0	6.720823741483619E+004	-3.8532138E-001
3	0	6.723823760777013E+004	-3.8527939E-001
3	0	6.726823780065659E+004	-3.8527939E-001
3	0	6.729823799356399E+004	-3.8527176E-001
3	0	6.732823818647699E+004	-3.8523740E-001
3	0	6.735823837935738E+004	-3.8524887E-001
3	0	6.738823857229692E+004	-3.8522977E-001
3	0	6.741823876515822E+004	-3.8514197E-001
3	0	6.744823895809730E+004	-3.8517249E-001
3	0	6.747823915097862E+004	-3.8522595E-001
3	0	6.750823934389115E+004	-3.8513812E-001
3	0	6.753823953679902E+004	-3.8509232E-001
3	0	6.756823972968501E+004	-3.8511142E-001
3	0	6.759823992261989E+004	-3.8501596E-001
3	0	6.762824011548120E+004	-3.8496250E-001
3	0	6.765824030842551E+004	-3.8503122E-001
3	0	6.768824050130183E+004	-3.8500831E-001
3	0	6.771824069421960E+004	-3.8497776E-001
3	0	6.774824088712293E+004	-3.8503504E-001
3	0	6.777824108001392E+004	-3.8497394E-001
3	0	6.780824127294379E+004	-3.8494343E-001
3	0	6.783824146580847E+004	-3.8498923E-001
3	0	6.786824165875558E+004	-3.8495484E-001
3	0	6.789824185162678E+004	-3.8492432E-001
3	0	6.792824204454965E+004	-3.8492432E-001
3	0	6.795824223744738E+004	-3.8490140E-001
3	0	6.798824243034360E+004	-3.8488996E-001
3	0	6.801824262326834E+004	-3.8486326E-001
3	0	6.804824281613767E+004	-3.8485560E-001
3	0	6.807824300908431E+004	-3.8481742E-001
3	0	6.810824320195033E+004	-3.8479069E-001
3	0	6.813824339487834E+004	-3.8477543E-001
3	0	6.816824358777097E+004	-3.8476777E-001
3	0	6.819824378067243E+004	-3.8468760E-001
3	0	6.822824397359160E+004	-3.8472581E-001
3	0	6.823531777193118E+004	-3.8471815E-001