time/s,Ewe/V
8106.112647975126,-0.41877648
8106.720847967765,-0.40876269
8108.4436479469,-0.3987608
8118.443647825829,-0.38884923
8128.443647704757,-0.38653171
8138.443647583685,-0.38524884
8148.443647462613,-0.38436309
8158.443647341541,-0.38363382
8168.443647220469,-0.38306496
8178.443647099397,-0.38253042
8188.443646978325,-0.38210663
8198.443646857253,-0.38167518
8208.443646736181,-0.38133919
8218.44364661511,-0.38095742
8228.443646494037,-0.38064051
8238.443646372965,-0.3803618
8248.443646251893,-0.38010216
8258.443646130821,-0.37977383
8268.44364600975,-0.37954092
8278.443645888678,-0.37936148
8288.443645767606,-0.37907892
8298.443645646534,-0.37882313
8308.443645525462,-0.37862077
8318.44364540439,-0.37844515
8328.443645283318,-0.37821606
8338.443645162246,-0.37807098
8348.443645041174,-0.37789536
8358.443644920102,-0.37772354
8368.44364479903,-0.377525
8378.443644677958,-0.37730739
8388.443644556886,-0.37716231
8398.443644435814,-0.3770172
8408.443644314742,-0.37687597
8418.44364419367,-0.37674612
8428.443644072599,-0.37655905
8438.443643951527,-0.37644833
8448.443643830455,-0.37629178
8458.443643709383,-0.3761467
8468.44364358831,-0.37602454
8478.443643467239,-0.37591761
8488.443643346167,-0.37578017
8498.443643225095,-0.37566563
8508.443643104023,-0.37555107
8518.443642982951,-0.37547472
8528.44364286188,-0.37533346
8538.443642740807,-0.37520748
8548.443642619735,-0.37508529
8558.443642498663,-0.37502423
8568.443642377591,-0.37490204
8578.44364225652,-0.37484854
8588.443642135448,-0.37473401
8598.443642014376,-0.37458897
8608.443641893304,-0.3744286
8618.443641772232,-0.37441713
8628.44364165116,-0.37431785
8638.443641530088,-0.37423772
8648.443641409016,-0.37413079
8658.443641287944,-0.37400863
8668.443641166872,-0.37391698
8678.4436410458,-0.37383679
8688.443640924728,-0.37376428
8698.443640803656,-0.37366119
8708.443640682584,-0.37361535
8718.443640561512,-0.37353137
8728.44364044044,-0.37347028
8738.443640319369,-0.37335953
8748.443640198297,-0.37329084
8758.443640077225,-0.37320682
8768.443639956153,-0.37308848
8778.44363983508,-0.37309992
8788.443639714009,-0.37300065
8798.443639592937,-0.37293193
8808.443639471865,-0.37287086
8818.443639350793,-0.37274867
8828.443639229721,-0.37270287
8838.44363910865,-0.37262648
8848.443638987577,-0.37255394
8858.443638866505,-0.37253869
8868.443638745433,-0.37249669
8878.443638624361,-0.37242416
8888.44363850329,-0.37237069
8898.443638382218,-0.37228286
8908.443638261146,-0.37222943
8918.443638140074,-0.37216452
8928.443638019002,-0.37208053
8938.44363789793,-0.37206525
8948.443637776858,-0.37201181
8958.443637655786,-0.37194309
8968.443637534714,-0.37191254
8978.443637413642,-0.37184379
8988.44363729257,-0.37179035
8998.443637171498,-0.37174836
9008.443637050426,-0.37164143
9018.443636929354,-0.37163383
9028.443636808282,-0.37156129
9038.443636687212,-0.37150401
9048.44363656614,-0.37139711
9058.443636445068,-0.37135512
9068.443636323997,-0.37132835
9078.443636202925,-0.37129021
9088.443636081853,-0.37117946
9098.44363596078,-0.37116799
9108.443635839709,-0.37106872
9118.443635718637,-0.37103823
9128.443635597563,-0.37098092
9138.443635476491,-0.37091219
9148.44363535542,-0.37083584
9158.443635234347,-0.37085113
9168.443635113275,-0.37077475
9178.443634992203,-0.37071365
9188.443634871132,-0.37064111
9198.44363475006,-0.37064877
9208.443634628988,-0.37059531
9218.443634507916,-0.37054569
9228.443634386844,-0.37048078
9238.443634265772,-0.37042731
9248.4436341447,-0.37037769
9258.443634023628,-0.37031659
9268.443633902556,-0.3702746
9278.443633781484,-0.37020588
9288.443633660412,-0.37022114
9298.44363353934,-0.37014097
9308.443633418268,-0.3700875
9318.443633297196,-0.37007606
9328.443633176124,-0.36998826
9338.443633055052,-0.36992335
9348.44363293398,-0.36991951
9358.443632812909,-0.36987752
9368.443632691837,-0.36980879
9378.443632570765,-0.36978206
9388.443632449693,-0.36973244
9398.44363232862,-0.36972097
9408.443632207547,-0.36966753
9418.443632086475,-0.36959499
9428.443631965403,-0.36959499
9438.443631844331,-0.36955681
9448.44363172326,-0.36950335
9458.443631602187,-0.36939648
9468.443631481116,-0.36938119
9478.443631360044,-0.36933917
9488.443631238972,-0.36933157
9498.443631117902,-0.3692323
9508.44363099683,-0.36919793
9518.443630875758,-0.36914828
9528.443630754686,-0.369091
9538.443630633614,-0.36909863
9548.443630512542,-0.36899939
9558.44363039147,-0.36888865
9568.443630270398,-0.36891156
9578.443630149326,-0.36890775
9588.443630028254,-0.3688581
9598.443629907182,-0.3687894
9608.44362978611,-0.36877412
9618.443629665038,-0.36866722
9628.443629543966,-0.36866722
9638.443629422894,-0.36865196
9648.443629301824,-0.36859083
9658.443629180752,-0.36858705
9668.44362905968,-0.36853358
9678.443628938609,-0.36847249
9688.443628817537,-0.36848015
9698.443628696465,-0.36838087
9708.443628575393,-0.36840761
9718.44362845432,-0.36832359
9728.443628333249,-0.36831596
9738.443628212175,-0.3682625
9748.443628091103,-0.36823198
9758.443627970031,-0.36817086
9768.44362784896,-0.36810598
9778.443627727887,-0.36808306
9788.443627606815,-0.36803344
9798.443627485743,-0.36806017
9808.443627364672,-0.36801052
9818.4436272436,-0.36794946
9828.443627122528,-0.36786541
9838.443627001456,-0.36784637
9848.443626880384,-0.36783871
9858.443626759312,-0.36778143
9868.44362663824,-0.36772799
9878.443626517168,-0.3676669
9888.443626396096,-0.36767069
9898.443626275024,-0.36762106
9908.443626153952,-0.36757144
9918.44362603288,-0.36757144
9928.443625911808,-0.3674989
9938.443625790736,-0.36745691
9948.443625669664,-0.36741108
9958.443625548593,-0.36741492
9968.44362542752,-0.36735383
9978.443625306449,-0.367392
9988.443625185377,-0.36730036
9998.443625064305,-0.3672851
10008.44362494323,-0.36721256
10018.44362482216,-0.36718965
10028.44362470109,-0.36711329
10038.44362458002,-0.36708274
10048.44362445895,-0.36711711
10058.44362433787,-0.36706364
10068.4436242168,-0.36704454
10078.44362409573,-0.36696056
10088.44362397466,-0.36698729
10098.44362385359,-0.36693001
10108.44362373251,-0.36685747
10118.44362361144,-0.36689183
10128.44362349037,-0.3668651
10138.4436233693,-0.36682311
10148.44362324823,-0.36680785
10158.44362312715,-0.36678112
10168.44362300608,-0.36675057
10178.44362288501,-0.36674291
10188.44362276394,-0.36671239
10198.44362264287,-0.36664748
10208.44362252179,-0.36658642
10218.44362240072,-0.36659023
10228.44362227965,-0.3665635
10238.44362215858,-0.36650622
10248.44362203751,-0.36647567
10258.44362191643,-0.36644131
10268.44362179536,-0.36644131
10278.44362167429,-0.36639932
10288.44362155322,-0.3663497
10298.44362143215,-0.36634204
10308.44362131107,-0.36625805
10318.44362119,-0.3662084
10328.44362106893,-0.36623514
10338.44362094786,-0.36617789
10348.44362082679,-0.36613968
10358.44362070572,-0.36613968
10368.44362058464,-0.36612824
10378.44362046357,-0.36604807
10388.4436203425,-0.36607096
10398.44362022143,-0.3659946
10408.44362010036,-0.36601749
10418.44361997928,-0.36596024
10428.44361985821,-0.36590299
10438.44361973714,-0.36594498
10448.44361961607,-0.36591059
10458.443619495,-0.36590296
10468.44361937392,-0.36586481
10478.44361925285,-0.36583424
10488.44361913178,-0.36586097
10498.44361901071,-0.36579224
10508.44361888964,-0.36581135
10518.44361876856,-0.36575407
10528.44361864749,-0.3657617
10538.44361852642,-0.36572352
10548.44361840535,-0.36569679
10558.44361828428,-0.36565861
10568.4436181632,-0.36564335
10578.44361804213,-0.36557081
10588.44361792106,-0.36558607
10598.44361779999,-0.36554024
10608.44361767892,-0.36555934
10618.44361755784,-0.36550593
10628.44361743677,-0.36542952
10638.4436173157,-0.36538756
10648.44361719463,-0.36538756
10658.44361707356,-0.36534169
10668.44361695249,-0.36534172
10678.44361683141,-0.3652539
10688.44361671034,-0.3652539
10698.44361658927,-0.3652119
10708.4436164682,-0.36520046
10718.44361634713,-0.36516228
10728.44361622605,-0.36513937
10738.44361610498,-0.36510882
10748.44361598391,-0.36501721
10758.44361586284,-0.36505538
10768.44361574177,-0.36502865
10778.44361562069,-0.3649714
10788.44361549962,-0.36494464
10798.44361537855,-0.36490649
10808.44361525748,-0.36490265
10818.44361513641,-0.36486831
10828.44361501533,-0.364811
10838.44361489426,-0.36481866
10848.44361477319,-0.36475757
10858.44361465212,-0.36474612
10868.44361453105,-0.36477667
10878.44361440997,-0.3647041
10888.4436142889,-0.36468884
10898.44361416783,-0.36470795
10908.44361404676,-0.36466977
10918.44361392569,-0.36463156
10928.44361380461,-0.36462393
10938.44361368354,-0.36462012
10948.44361356247,-0.36457431
10958.4436134414,-0.36453229
10968.44361332033,-0.3645094
10978.44361319926,-0.3644903
10988.44361307818,-0.36446741
10998.44361295711,-0.36443686
11008.44361283604,-0.36440632
11018.44361271497,-0.36433378
11028.4436125939,-0.3643223
11038.44361247282,-0.36436814
11048.44361235175,-0.36433375
11058.44361223068,-0.36431849
11068.44361210961,-0.36426505
11078.44361198854,-0.36425743
11088.44361186746,-0.36420393
11098.44361174639,-0.3642078
11108.44361162532,-0.36409706
11118.44361150425,-0.36403215
11128.44361138318,-0.36405504
11138.4436112621,-0.36399013
11148.44361114103,-0.36393288
11158.44361101996,-0.36390236
11168.44361089889,-0.36393288
11178.44361077782,-0.36387181
11188.44361065674,-0.36384508
11198.44361053567,-0.36382598
11208.4436104146,-0.36382216
11218.44361029353,-0.36379161
11228.44361017246,-0.36377633
11238.44361005138,-0.36375344
11248.44360993031,-0.36374578
11258.44360980924,-0.36373052
11268.44360968817,-0.36372671
11278.4436095671,-0.36366564
11288.44360944603,-0.36363125
11298.44360932495,-0.36358926
11308.44360920388,-0.3636198
11318.44360908281,-0.36357397
11328.44360896174,-0.36356634
11338.44360884067,-0.36355105
11348.44360871959,-0.36350906
11358.44360859852,-0.36350906
11368.44360847745,-0.36349761
11378.44360835638,-0.36347088
11388.44360823531,-0.36337927
11398.44360811423,-0.3633678
11408.44360799316,-0.36335635
11418.44360787209,-0.36336017
11428.44360775102,-0.36332202
11438.44360762995,-0.36330673
11448.44360750887,-0.36330292
11458.4436073878,-0.36324945
11468.44360726673,-0.36323416
11478.44360714566,-0.36314255
11488.44360702459,-0.36318839
11498.44360690351,-0.36309671
11508.44360678244,-0.36307383
11518.44360666137,-0.36306238
11528.4436065403,-0.36300892
11538.44360641923,-0.3630051
11548.44360629815,-0.36302036
11558.44360617708,-0.36290964
11568.44360605601,-0.36294782
11578.44360593494,-0.3628791
11588.44360581387,-0.36284092
11598.4436056928,-0.3628715
11608.44360557172,-0.36278364
11618.44360545065,-0.36272639
11628.44360532958,-0.36277983
11638.44360520851,-0.36270729
11648.44360508744,-0.36273021
11658.44360496636,-0.36266148
11668.44360484529,-0.36264238
11678.44360472422,-0.36264238
11688.44360460315,-0.36262712
11698.44360448208,-0.36264622
11708.443604361,-0.36261949
11718.44360423993,-0.36253932
11728.44360411886,-0.36253166
11738.44360399779,-0.36248967
11748.44360387672,-0.3625164
11758.44360375564,-0.3624897
11768.44360363457,-0.36241332
11778.44360351349,-0.36242095
11788.44360339241,-0.36235604
11798.44360327134,-0.36239803
11808.44360315027,-0.36235222
11818.4436030292,-0.36232167
11828.44360290813,-0.36227205
11838.44360278705,-0.36219949
11848.44360266598,-0.36218426
11858.44360254491,-0.36213461
11868.44360242384,-0.36209643
11878.44360230277,-0.36212313
11888.44360218169,-0.3620697
11898.44360206062,-0.36210406
11908.44360193955,-0.36198187
11918.44360181848,-0.36195514
11928.44360169741,-0.36192459
11938.44360157633,-0.36196277
11948.44360145526,-0.36186734
11958.44360133419,-0.36185589
11968.44360121312,-0.36187497
11978.44360109205,-0.36183679
11988.44360097098,-0.36184442
11998.4436008499,-0.36177954
12008.44360072883,-0.36172989
12018.44360060776,-0.36171845
12028.44360048669,-0.36171079
12038.44360036562,-0.36168408
12048.44360024454,-0.36163825
12058.44360012347,-0.36163443
12068.4436000024,-0.3615886
12078.44359988133,-0.36161914
12088.44359976026,-0.36155808
12098.44359963918,-0.36155042
12108.44359951811,-0.36151606
12118.44359939704,-0.36158097
12128.44359927597,-0.36145115
12138.4435991549,-0.3614397
12148.44359903382,-0.36142445
12158.44359891275,-0.36140153
12168.44359879168,-0.36136335
12178.44359867061,-0.36139008
12188.44359854954,-0.36130607
12198.44359842846,-0.36132899
12208.44359830739,-0.36132517
12218.44359818632,-0.36126789
12228.44359806525,-0.36125645
12238.44359794418,-0.36123738
12248.4435978231,-0.36118388
12258.44359770203,-0.36114952
12268.44359758096,-0.36112666
12278.44359745989,-0.36110371
12288.44359733882,-0.36105791
12298.44359721775,-0.36108083
12308.44359709667,-0.36100063
12318.4435969756,-0.36100063
12328.44359685453,-0.36097774
12338.44359673346,-0.36093575
12348.44359661239,-0.36091664
12358.44359649131,-0.36094719
12368.44359637024,-0.36085939
12378.44359624917,-0.3609052
12388.4435961281,-0.36083648
12398.44359600703,-0.3607792
12408.44359588595,-0.3608059
12418.44359576488,-0.36074865
12428.44359564381,-0.36072958
12438.44359552274,-0.36074483
12448.44359540167,-0.36070284
12458.44359528059,-0.36066082
12468.44359515952,-0.36070666
12478.44359503845,-0.36063412
12488.44359491738,-0.36064938
12498.44359479631,-0.36058831
12508.44359467523,-0.36055776
12518.44359455416,-0.36055011
12528.44359443309,-0.36049667
12538.44359431202,-0.36047757
12548.44359419095,-0.36048141
12558.44359406988,-0.36045086
12568.4435939488,-0.3603783
12578.44359382773,-0.36038977
12588.44359370666,-0.36032867
12598.44359358559,-0.36032486
12608.44359346452,-0.36027142
12618.44359334344,-0.36024466
12628.44359322237,-0.36021033
12638.4435931013,-0.36015686
12648.44359298023,-0.36011869
12658.44359285916,-0.36001942
12668.44359273808,-0.3600767
12678.44359261701,-0.36004996
12688.44359249594,-0.35992014
12698.44359237487,-0.35990107
12708.4435922538,-0.35987049
12718.44359213272,-0.35984379
12728.44359201165,-0.3598018
12738.44359189058,-0.35977888
12748.44359176951,-0.35977125
12758.44359164844,-0.35973305
12768.44359152736,-0.35965672
12778.44359140629,-0.35966814
12788.44359128522,-0.35962614
12798.44359116415,-0.35965669
12808.44359104308,-0.35956886
12818.443590922,-0.35955745
12828.44359080093,-0.3595269
12838.44359067986,-0.35947347
12848.44359055879,-0.35946959
12858.44359043772,-0.3594276
12868.44359031665,-0.35945052
12878.44359019557,-0.35937035
12888.4435900745,-0.35938179
12898.44358995343,-0.35935125
12908.44358983236,-0.35930163
12918.44358971129,-0.35930163
12928.44358959021,-0.35929781
12938.44358946914,-0.35933217
12948.44358934807,-0.35922527
12958.443589227,-0.35930926
12968.44358910593,-0.35924435
12978.44358898485,-0.35922909
12988.44358886378,-0.3592329
12998.44358874271,-0.35917944
13008.44358862164,-0.35913363
13018.44358850057,-0.3590878
13028.44358837949,-0.35909927
13038.44358825842,-0.35908401
13048.44358813735,-0.35906491
13058.44358801628,-0.35906491
13068.44358789521,-0.35909545
13078.44358777413,-0.35902292
13088.44358765306,-0.35897326
13098.44358753199,-0.35895801
13108.44358741092,-0.35896564
13118.44358728985,-0.35890454
13128.44358716877,-0.35888547
13138.4435870477,-0.35886255
13148.44358692663,-0.35880911
13158.44358680556,-0.35880908
13168.44358668449,-0.35882819
13178.44358656342,-0.35873276
13188.44358644234,-0.3587862
13198.44358632127,-0.35869455
13208.4435862002,-0.35867929
13218.44358607913,-0.35865256
13228.44358595806,-0.35869074
13238.44358583698,-0.35860676
13248.44358571591,-0.35865638
13258.44358559484,-0.35859147
13268.44358547377,-0.35866019
13278.4435853527,-0.35856092
13288.44358523162,-0.35856476
13298.44358511055,-0.35847694
13308.44358498948,-0.35851511
13318.44358486841,-0.35847694
13328.44358474734,-0.35841203
13338.44358462626,-0.3584502
13348.44358450519,-0.35841966
13358.44358438412,-0.35842732
13368.44358426305,-0.35835093
13378.44358414198,-0.35838148
13388.4435840209,-0.35833183
13398.44358389983,-0.35830131
13408.44358377876,-0.35829368
13418.44358365769,-0.35826311
13428.44358353662,-0.35825166
13438.44358341554,-0.35819441
13448.44358329447,-0.35818294
13458.4435831734,-0.35817149
13468.44358305233,-0.35817534
13478.44358293126,-0.35812569
13488.44358281019,-0.35811424
13498.44358268911,-0.35806459
13508.44358256804,-0.35800731
13518.44358244697,-0.35801113
13528.4435823259,-0.35798821
13538.44358220483,-0.35795766
13548.44358208375,-0.35785079
13558.44358196268,-0.35785079
13568.44358184161,-0.35785842
13578.44358172054,-0.35781258
13588.44358159947,-0.35776678
13598.44358147839,-0.35774007
13608.44358135732,-0.35775915
13618.44358123625,-0.35767895
13628.44358111518,-0.3576217
13638.44358099411,-0.35762933
13648.44358087303,-0.35757971
13658.44358075196,-0.35754153
13668.44358063089,-0.35757589
13678.44358050982,-0.35754916
13688.44358038875,-0.35755298
13698.44358026767,-0.35750717
13708.4435801466,-0.35744989
13718.44358002553,-0.35742697
13728.44357990446,-0.35741553
13738.44357978339,-0.35737351
13748.44357966231,-0.35739261
13758.44357954124,-0.35735825
13768.44357942017,-0.35730097
13778.4435792991,-0.35732007
13788.44357917803,-0.35730097
13798.44357905696,-0.35727423
13808.44357893588,-0.35724372
13818.44357881481,-0.35725516
13828.44357869374,-0.35717881
13838.44357857267,-0.35714445
13848.4435784516,-0.35716355
13858.44357833052,-0.35716352
13868.44357820945,-0.35713682
13878.44357808838,-0.3571063
13888.44357796731,-0.35706043
13898.44357784624,-0.35701844
13908.44357772516,-0.35702226
13918.44357760409,-0.35701081
13928.44357748302,-0.35696882
13938.44357736195,-0.35691154
13948.44357724088,-0.35693446
13958.4435771198,-0.35688484
13968.44357699873,-0.35686955
13978.44357687766,-0.35686573
13988.44357675659,-0.35687336
13998.44357663552,-0.35679317
14008.44357651444,-0.35677791
14018.44357639337,-0.35670537
14028.4435762723,-0.35669011
14038.44357615123,-0.35671303
14048.44357603016,-0.35668248
14058.44357590908,-0.35665575
14068.44357578801,-0.35663283
14078.44357566694,-0.35654122
14088.44357554587,-0.35656026
14098.4435754248,-0.3565183
14108.44357530373,-0.3565374
14118.44357518265,-0.35649541
14128.44357506158,-0.35643432
14138.44357494051,-0.35645723
14148.44357481944,-0.35641903
14158.44357469837,-0.35640758
14168.44357457729,-0.35639992
14178.44357445622,-0.3563312
14188.44357433515,-0.35634649
14198.44357421408,-0.35630447
14208.44357409301,-0.35632357
14218.44357397193,-0.3562434
14228.44357385086,-0.35620138
14238.44357372979,-0.35621285
14248.44357360872,-0.35614029
14258.44357348765,-0.35612884
14268.44357336657,-0.35612503
14278.4435732455,-0.35608685
14288.44357312443,-0.3560296
14298.44357300336,-0.35599521
14308.44357288229,-0.3560105
14318.44357276121,-0.35596085
14328.44357264014,-0.35593411
14338.44357251907,-0.35589594
14348.443572398,-0.35585397
14358.44357227693,-0.3558616
14368.44357215585,-0.35579669
14378.44357203478,-0.35580432
14388.44357191371,-0.35572413
14398.44357179264,-0.35566688
14408.44357167157,-0.35565925
14418.4435715505,-0.35567832
14428.44357142942,-0.35562107
14438.44357130835,-0.35559434
14448.44357118728,-0.35555235
14458.44357106621,-0.35560197
14468.44357094514,-0.35554469
14478.44357082406,-0.35554853
14488.44357070299,-0.35554469
14498.44357058192,-0.35547978
14508.44357046085,-0.3554149
14518.44357033978,-0.35546833
14528.4435702187,-0.35545307
14538.44357009763,-0.3554149
14548.44356997656,-0.35539198
14558.44356985549,-0.35541108
14568.44356973442,-0.35541108
14578.44356961334,-0.35534999
14588.44356949227,-0.35526597
14598.4435693712,-0.35529271
14608.44356925013,-0.3552736
14618.44356912906,-0.35524309
14628.44356900798,-0.35523546
14638.44356888691,-0.35519347
14648.44356876584,-0.35520107
14658.44356864477,-0.35517818
14668.4435685237,-0.35518199
14678.44356840262,-0.35515144
14688.44356828155,-0.35511705
14698.44356816048,-0.35513234
14708.44356803941,-0.3550331
14718.44356791834,-0.35508272
14728.44356779727,-0.35503688
14738.44356767619,-0.355014
14748.44356755512,-0.35500252
14758.44356743405,-0.35490328
14768.44356731298,-0.35487273
14778.44356719191,-0.35489562
14788.44356707083,-0.35484219
14798.44356694976,-0.35483074
14808.44356682869,-0.35481927
14818.44356670762,-0.35473529
14828.44356658655,-0.35477346
14838.44356646547,-0.35476202
14848.4435663444,-0.35470474
14858.44356622333,-0.3547124
14868.44356610226,-0.35469708
14878.44356598119,-0.35470855
14888.44356586011,-0.35466656
14898.44356573904,-0.35468182
14908.44356561797,-0.35459402
14918.4435654969,-0.3546131
14928.44356537583,-0.35456347
14938.44356525475,-0.35459021
14948.44356513368,-0.35456729
14958.44356501261,-0.35450238
14968.44356489154,-0.35454819
14978.44356477047,-0.35452148
14988.44356464939,-0.35450619
14998.44356452832,-0.35442218
15008.44356440725,-0.35441077
15018.44356428618,-0.3544184
15028.44356416511,-0.35438022
15038.44356404404,-0.35439929
15048.44356392296,-0.35431913
15058.44356380189,-0.35427329
15068.44356368082,-0.35430765
15078.44356355975,-0.354258
15088.44356343868,-0.35421604
15098.4435633176,-0.35417402
15108.44356319653,-0.35421985
15118.44356307546,-0.35413203
15128.44356295439,-0.35407093
15138.44356283332,-0.35406715
15148.44356271224,-0.35403275
15158.44356259117,-0.35402513
15168.4435624701,-0.35404804
15178.44356234903,-0.35391822
15188.44356222796,-0.35395259
15198.44356210688,-0.35389149
15208.44356198581,-0.35391441
15218.44356186474,-0.3538495
15228.44356174367,-0.35380751
15238.4435616226,-0.35370824
15248.44356150152,-0.35375786
15258.44356138045,-0.35371587
15268.44356125938,-0.35372731
15278.44356113831,-0.35358608
15288.44356101724,-0.35357079
15298.44356089616,-0.35351351
15308.44356077509,-0.35352114
15318.44356065402,-0.35349825
15328.44356053295,-0.35349825
15338.44356041188,-0.35347536
15348.44356029081,-0.35344097
15358.44356016973,-0.35341042
15368.44356004866,-0.35338369
15378.44355992759,-0.35337225
15388.44355980652,-0.3533608
15398.44355968545,-0.35331878
15408.44355956437,-0.35328445
15418.4435594433,-0.35326916
15428.44355932223,-0.35318136
15438.44355920116,-0.35321572
15448.44355908009,-0.35316607
15458.44355895901,-0.3531737
15468.44355883794,-0.35316989
15478.44355871687,-0.35314697
15488.4435585958,-0.35311645
15498.44355847473,-0.35313171
15508.44355835365,-0.35310116
15518.44355823258,-0.3530935
15528.44355811151,-0.35307062
15538.44355799044,-0.35306299
15548.44355786937,-0.35301337
15558.44355774829,-0.35296372
15568.44355762722,-0.35285681
15578.44355750615,-0.35292935
15588.44355738508,-0.35288736
15598.44355726401,-0.35282627
15608.44355714293,-0.35276517
15618.44355702186,-0.35276902
15628.44355690079,-0.35275376
15638.44355677972,-0.35273084
15648.44355665865,-0.35273847
15658.44355653758,-0.35266209
15668.4435564165,-0.35266209
15678.44355629543,-0.35265827
15688.44355617436,-0.35261628
15698.44355605329,-0.35257426
15708.44355593222,-0.3525323
15718.44355581114,-0.3525399
15728.44355569007,-0.35256281
15738.443555569,-0.35254756
15748.44355544793,-0.3524712
15758.44355532686,-0.35244063
15768.44355520578,-0.35241392
15778.44355508471,-0.35239866
15788.44355496364,-0.35237575
15798.44355484257,-0.3523185
15808.4435547215,-0.3523452
15818.44355460042,-0.35229558
15828.44355447935,-0.35224211
15838.44355435828,-0.35227647
15848.44355423721,-0.35220394
15858.44355411614,-0.35219246
15868.44355399506,-0.35220012
15878.44355387399,-0.35216957
15888.44355375292,-0.35211611
15898.44355363185,-0.352097
15908.44355351078,-0.35205123
15918.4435533897,-0.35202068
15928.44355326863,-0.35199395
15938.44355314756,-0.35194811
15948.44355302649,-0.35189468
15958.44355290542,-0.35190997
15968.44355278435,-0.35184887
15978.44355266327,-0.35181069
15988.4435525422,-0.35175723
15998.44355242113,-0.35172668
16008.44355230006,-0.35166559
16018.44355217899,-0.35167703
16028.44355205791,-0.35165414
16038.44355193684,-0.35158923
16048.44355181577,-0.35158542
16058.4435516947,-0.35152432
16068.44355157363,-0.35153198
16078.44355145255,-0.35141361
16088.44355133148,-0.35145181
16098.44355121041,-0.3513945
16108.44355108934,-0.35136399
16118.44355096827,-0.35130671
16128.44355084719,-0.35130289
16138.44355072612,-0.35127234
16148.44355060505,-0.35132197
16158.44355048398,-0.35124561
16168.44355036291,-0.35123798
16178.44355024183,-0.35120744
16188.44355012076,-0.35119599
16198.44354999969,-0.35115016
16208.44354987862,-0.35112345
16218.44354975755,-0.35111964
16228.44354963647,-0.35110053
16238.4435495154,-0.3510547
16248.44354939433,-0.35104325
16258.44354927326,-0.35100508
16268.44354915219,-0.35099745
16278.44354903112,-0.35097453
16288.44354891004,-0.35093254
16298.44354878897,-0.35091344
16308.4435486679,-0.35084471
16318.44354854683,-0.35084853
16328.44354842576,-0.35085618
16338.44354830468,-0.3508409
16348.44354818361,-0.35082945
16358.44354806254,-0.35075691
16368.44354794147,-0.35075691
16378.4435478204,-0.35073781
16388.44354769932,-0.3506729
16398.44354757825,-0.35065764
16408.44354745718,-0.35055456
16418.44354733611,-0.35060418
16428.44354721504,-0.35063091
16438.44354709396,-0.35055837
16448.44354697289,-0.35048202
16458.44354685182,-0.3504782
16468.44354673075,-0.3504324
16478.44354660968,-0.35040182
16488.4435464886,-0.35037512
16498.44354636753,-0.35038275
16508.44354624646,-0.35033309
16518.44354612539,-0.35031021
16528.44354600432,-0.35030255
16538.44354588325,-0.35026056
16548.44354576217,-0.35025674
16558.4435456411,-0.35021856
16568.44354552003,-0.35013837
16578.44354539896,-0.3501575
16588.44354527789,-0.35010022
16598.44354515681,-0.35008875
16608.44354503574,-0.3500315
16618.44354491467,-0.35003531
16628.4435447936,-0.35001624
16638.44354467253,-0.35000858
16648.44354455145,-0.34996277
16658.44354443038,-0.34993985
16668.44354430931,-0.34996659
16678.44354418824,-0.34985968
16688.44354406717,-0.34983295
16698.44354394609,-0.34982911
16708.44354382502,-0.34974131
16718.44354370395,-0.34974512
16728.44354358288,-0.34967262
16738.44354346181,-0.34968403
16748.44354334073,-0.34966117
16758.44354321966,-0.34960005
16768.44354309859,-0.34953514
16778.44354297752,-0.3495084
16788.44354285645,-0.34950459
16798.44354273537,-0.34944731
16808.4435426143,-0.34945878
16818.44354249323,-0.34937477
16828.44354237216,-0.34939769
16838.44354225109,-0.34935951
16848.44354213002,-0.34930223
16858.44354200894,-0.3492488
16868.44354188787,-0.34923351
16878.4435417668,-0.34921062
16888.44354164573,-0.34910753
16898.44354152466,-0.34911898
16908.44354140358,-0.34910753
16918.44354128251,-0.34898916
16928.44354116144,-0.3489548
16938.44354104037,-0.34898153
16948.4435409193,-0.34898153
16958.44354079822,-0.34891281
16968.44354067715,-0.3488746
16978.44354055608,-0.3488059
16988.44354043501,-0.34877917
16998.44354031394,-0.34879065
17008.44354019286,-0.34874481
17018.44354007179,-0.34867227
17028.44353995072,-0.34871426
17038.44353982965,-0.34867227
17048.44353970858,-0.34867609
17058.4435395875,-0.34860355
17068.44353946643,-0.34858829
17078.44353934536,-0.34856156
17088.44353922429,-0.34852716
17098.44353910322,-0.34845847
17108.44353898214,-0.34848899
17118.44353886107,-0.34844702
17128.44353874,-0.34843558
17138.44353861893,-0.34838209
17148.44353849786,-0.34832484
17158.44353837679,-0.34833246
17168.44353825571,-0.3482523
17178.44353813464,-0.34828284
17188.44353801357,-0.34824467
17198.4435378925,-0.34822938
17208.44353777143,-0.34822172
17218.44353765035,-0.34819883
17228.44353752928,-0.34812629
17238.44353740821,-0.34808049
17248.44353728714,-0.3481034
17258.44353716607,-0.34805757
17268.44353704499,-0.34801558
17278.44353692392,-0.34798884
17288.44353680285,-0.34792775
17298.44353668178,-0.34790868
17308.44353656071,-0.34786665
17318.44353643963,-0.34783995
17328.44353631856,-0.34782848
17338.44353619749,-0.3478094
17348.44353607642,-0.34778652
17358.44353595535,-0.3477903
17368.44353583427,-0.34771013
17378.4435357132,-0.34774065
17388.44353559213,-0.34769866
17398.44353547106,-0.34767577
17408.44353534999,-0.34764141
17418.44353522891,-0.34761849
17428.44353510784,-0.34759176
17438.44353498677,-0.34758031
17448.4435348657,-0.34754214
17458.44353474463,-0.34754214
17468.44353462356,-0.34749252
17478.44353450248,-0.34748107
17488.44353438141,-0.34747341
17498.44353426034,-0.34743142
17508.44353413927,-0.34738943
17518.4435340182,-0.3473818
17528.44353389712,-0.34736651
17538.44353377605,-0.34731686
17548.44353365498,-0.34726724
17558.44353353391,-0.34727487
17568.44353341284,-0.34719852
17578.44353329176,-0.34720233
17588.44353317069,-0.34719089
17598.44353304962,-0.34712598
17608.44353292855,-0.34709924
17618.44353280748,-0.34708399
17628.4435326864,-0.3470687
17638.44353256533,-0.34702289
17648.44353244426,-0.34691218
17658.44353232319,-0.34695038
17668.44353220212,-0.34687015
17678.44353208104,-0.3469198
17688.44353195997,-0.34685108
17698.4435318389,-0.34683198
17708.44353171783,-0.34680143
17718.44353159676,-0.34673274
17728.44353147568,-0.34672126
17738.44353135461,-0.34671745
17748.44353123354,-0.34673655
17758.44353111247,-0.3466869
17768.4435309914,-0.34667546
17778.44353087033,-0.3466869
17788.44353074925,-0.34664494
17798.44353062818,-0.34657618
17808.44353050711,-0.34655327
17818.44353038604,-0.34656093
17828.44353026497,-0.34651127
17838.44353014389,-0.34650365
17848.44353002282,-0.34645781
17858.44352990175,-0.34644637
17868.44352978068,-0.34643111
17878.44352965961,-0.34640437
17888.44352953853,-0.34634328
17898.44352941746,-0.34630892
17908.44352929639,-0.34633565
17918.44352917532,-0.34625167
17928.44352905425,-0.3462784
17938.44352893317,-0.34620965
17948.4435288121,-0.34617147
17958.44352869103,-0.34607601
17968.44352856996,-0.3460913
17978.44352844889,-0.34613329
17988.44352832781,-0.3460913
17998.44352820674,-0.3460722
18008.44352808567,-0.34605694
18018.4435279646,-0.34599584
18028.44352784353,-0.34591568
18038.44352772245,-0.34591568
18048.44352760138,-0.34588513
18058.44352748031,-0.3459042
18068.44352735924,-0.34582403
18078.44352723817,-0.34586602
18088.4435271171,-0.34582022
18098.44352699602,-0.34575531
18108.44352687495,-0.34572858
18118.44352675388,-0.34572476
18128.44352663281,-0.3456904
18138.44352651174,-0.34565985
18148.44352639066,-0.34560642
18158.44352626959,-0.34558734
18168.44352614852,-0.3455224
18178.44352602745,-0.34557584
18188.44352590638,-0.34550714
18198.4435257853,-0.34549949
18208.44352566423,-0.34546134
18218.44352554316,-0.34540787
18228.44352542209,-0.34537733
18238.44352530102,-0.34537351
18248.44352517994,-0.34532386
18258.44352505887,-0.34524751
18268.4435249378,-0.34519789
18278.44352481673,-0.34510243
18288.44352469566,-0.34511769
18298.44352457458,-0.34506425
18308.44352445351,-0.3450146
18318.44352433244,-0.34493828
18328.44352421137,-0.34494588
18338.4435240903,-0.34485424
18348.44352396922,-0.34483516
18358.44352384815,-0.34475115
18368.44352372708,-0.34472826
18378.44352360601,-0.34466335
18388.44352348494,-0.34464809
18398.44352336387,-0.34461755
18408.44352324279,-0.34454882
18418.44352312172,-0.34449917
18428.44352300065,-0.34445718
18438.44352287958,-0.34442282
18448.44352275851,-0.34438464
18458.44352263743,-0.34430066
18468.44352251636,-0.34424338
18478.44352239529,-0.34426245
18488.44352227422,-0.34416699
18498.44352215315,-0.34414792
18508.44352203207,-0.34409449
18518.443521911,-0.34409449
18528.44352178993,-0.34405631
18538.44352166886,-0.34397995
18548.44352154779,-0.3439914
18558.44352142671,-0.34396848
18568.44352130564,-0.34394175
18578.44352118457,-0.34389213
18588.4435210635,-0.34385011
18598.44352094243,-0.34383103
18608.44352082135,-0.34385777
18618.44352070028,-0.34381577
18628.44352057921,-0.34381193
18638.44352045814,-0.34374321
18648.44352033707,-0.34372029
18658.44352021599,-0.34366304
18668.44352009492,-0.34370506
18678.44351997385,-0.3436363
18688.44351985278,-0.34362867
18698.44351973171,-0.34358287
18708.44351961064,-0.3435294
18718.44351948956,-0.34349504
18728.44351936849,-0.34345305
18738.44351924742,-0.34343013
18748.44351912635,-0.34345305
18758.44351900528,-0.34336907
18768.4435188842,-0.34331179
18778.44351876313,-0.34334996
18788.44351864206,-0.34326598
18798.44351852099,-0.34322014
18808.44351839992,-0.34325069
18818.44351827884,-0.34318197
18828.44351815777,-0.34313232
18838.4435180367,-0.34305596
18848.44351791563,-0.34303689
18858.44351779456,-0.34305218
18868.44351767348,-0.3429949
18878.44351755241,-0.3429758
18888.44351743134,-0.34293377
18898.44351731027,-0.34292233
18908.4435171892,-0.34288415
18918.44351706812,-0.34286508
18928.44351694705,-0.34283835
18938.44351682598,-0.34281924
18948.44351670491,-0.34278491
18958.44351658384,-0.34277344
18968.44351646276,-0.3427009
18978.44351634169,-0.34269708
18988.44351622062,-0.34267035
18998.44351609955,-0.34266269
19008.44351597848,-0.342594
19018.44351585741,-0.34259784
19028.44351573633,-0.34252527
19038.44351561526,-0.34249473
19048.44351549419,-0.34245655
19058.44351537312,-0.3423993
19068.44351525205,-0.34241456
19078.44351513099,-0.34241071
19088.44351500992,-0.34237635
19098.44351488884,-0.34231147
19108.44351476777,-0.34230384
19118.4435146467,-0.34222749
19128.44351452563,-0.34223512
19138.44351440456,-0.34212056
19148.44351428348,-0.3421129
19158.44351416241,-0.34204039
19168.44351404134,-0.34202129
19178.44351392027,-0.34196782
19188.4435137992,-0.34186858
19198.44351367812,-0.34187239
19208.44351355705,-0.34184185
19218.44351343598,-0.34178457
19228.44351331491,-0.34175405
19238.44351319384,-0.3417311
19248.44351307277,-0.34168914
19258.44351295169,-0.34171203
19268.44351283062,-0.34167767
19278.44351270955,-0.3416242
19288.44351258848,-0.34160128
19298.44351246741,-0.34162804
19308.44351234633,-0.3415173
19318.44351222526,-0.34148675
19328.44351210419,-0.34144095
19338.44351198312,-0.34138748
19348.44351186205,-0.34142566
19358.44351174097,-0.34141043
19368.4435116199,-0.3413837
19378.44351149883,-0.34133404
19388.44351137776,-0.34128058
19398.44351125669,-0.34127298
19408.44351113561,-0.34125769
19418.44351101454,-0.34123477
19428.44351089347,-0.34118134
19438.4435107724,-0.34114316
19448.44351065133,-0.34116605
19458.44351053025,-0.34109351
19468.44351040918,-0.34103626
19478.44351028811,-0.34098279
19488.44351016704,-0.34097514
19498.44351004597,-0.34092551
19508.44350992489,-0.34083387
19518.44350980382,-0.34086445
19528.44350968275,-0.34077281
19538.44350956168,-0.34074226
19548.44350944061,-0.34071934
19558.44350931954,-0.34065828
19568.44350919846,-0.34066209
19578.44350907739,-0.34058571
19588.44350895632,-0.340601
19598.44350883525,-0.34050554
19608.44350871418,-0.34050936
19618.4435085931,-0.34045592
19628.44350847203,-0.34042537
19638.44350835096,-0.34039861
19648.44350822989,-0.34034517
19658.44350810882,-0.34028411
19668.44350798774,-0.34026501
19678.44350786667,-0.34027264
19688.4435077456,-0.34017339
19698.44350762453,-0.340139
19708.44350750346,-0.34015429
19718.44350738238,-0.34010845
19728.44350726131,-0.34012756
19738.44350714024,-0.34007412
19748.44350701917,-0.3400321
19758.4435068981,-0.34001684
19768.44350677702,-0.33996719
19778.44350665595,-0.33990613
19788.44350653488,-0.33990231
19798.44350641381,-0.33983737
19808.44350629274,-0.33982593
19818.44350617166,-0.33982211
19828.44350605059,-0.33971137
19838.44350592952,-0.3396503
19848.44350580845,-0.33970758
19858.44350568738,-0.33964267
19868.44350556631,-0.33956629
19878.44350544523,-0.33957776
19888.44350532416,-0.33951285
19898.44350520309,-0.33948612
19908.44350508202,-0.33947086
19918.44350496095,-0.33940595
19928.44350483987,-0.33932197
19938.4435047188,-0.33933723
19948.44350459773,-0.33930668
19958.44350447666,-0.3392494
19968.44350435559,-0.33918068
19978.44350423451,-0.33912724
19988.44350411344,-0.33912724
19998.44350399237,-0.33905852
20008.4435038713,-0.33905849
20018.44350375023,-0.33902416
20028.44350362915,-0.33898598
20038.44350350808,-0.33895162
20048.44350338701,-0.33887908
20058.44350326594,-0.33885235
20068.44350314487,-0.33882943
20078.44350302379,-0.33879507
20088.44350290272,-0.3387416
20098.44350278165,-0.33870727
20108.44350266058,-0.33871868
20118.44350253951,-0.33864614
20128.44350241843,-0.33861563
20138.44350229736,-0.33861563
20148.44350217629,-0.33854309
20158.44350205522,-0.33849728
20168.44350193415,-0.33844
20178.44350181308,-0.33842471
20188.443501692,-0.33840179
20198.44350157093,-0.33838272
20208.44350144986,-0.33830637
20218.44350132879,-0.33832163
20228.44350120772,-0.33825293
20238.44350108664,-0.33826053
20248.44350096557,-0.33819947
20258.4435008445,-0.33813837
20268.44350072343,-0.33811545
20278.44350060236,-0.33810019
20288.44350048128,-0.3380124
20298.44350036021,-0.33798948
20308.44350023914,-0.33798566
20318.44350011807,-0.33795512
20328.443499997,-0.3378253
20338.44349987592,-0.33778331
20348.44349975485,-0.33779475
20358.44349963378,-0.33779475
20368.44349951271,-0.33771455
20378.44349939164,-0.33766875
20388.44349927056,-0.33762294
20398.44349914949,-0.33756185
20408.44349902842,-0.33754277
20418.44349890735,-0.33751985
20428.44349878628,-0.33740148
20438.44349866521,-0.33742058
20448.44349854413,-0.33735952
20458.44349842306,-0.33738238
20468.44349830199,-0.33732894
20478.44349818092,-0.33734041
20488.44349805985,-0.33726022
20498.44349793877,-0.33720678
20508.4434978177,-0.3372106
20518.44349769663,-0.3371495
20528.44349757556,-0.33710751
20538.44349745449,-0.33711895
20548.44349733341,-0.33711132
20558.44349721234,-0.3370617
20568.44349709127,-0.33700824
20578.4434969702,-0.33693951
20588.44349684913,-0.33698532
20598.44349672805,-0.33696243
20608.44349660698,-0.33688605
20618.44349648591,-0.3368479
20628.44349636484,-0.33678681
20638.44349624377,-0.33682117
20648.44349612269,-0.33674097
20658.44349600162,-0.33669135
20668.44349588055,-0.33669516
20678.44349575948,-0.33662644
20688.44349563841,-0.33657297
20698.44349551733,-0.33650425
20708.44349539626,-0.33650044
20718.44349527519,-0.33645463
20728.44349515412,-0.33643171
20738.44349503305,-0.33634391
20748.44349491198,-0.33632481
20758.4434947909,-0.33630955
20768.44349466983,-0.33623317
20778.44349454876,-0.33620644
20788.44349442769,-0.33611101
20798.44349430662,-0.33613008
20808.44349418554,-0.33606902
20818.44349406447,-0.33607665
20828.4434939434,-0.33603844
20838.44349382233,-0.33601937
20848.44349370126,-0.3359392
20858.44349358018,-0.33591628
20868.44349345911,-0.33584374
20878.44349333804,-0.33582467
20888.44349321697,-0.3357712
20898.4434930959,-0.33575591
20908.44349297482,-0.33569485
20918.44349285375,-0.33560321
20928.44349273268,-0.33558413
20938.44349261161,-0.3355574
20948.44349249054,-0.33551157
20958.44349236946,-0.3354696
20968.44349224839,-0.3354314
20978.44349212732,-0.33534357
20988.44349200625,-0.33529013
20998.44349188518,-0.33525196
21008.4434917641,-0.33524433
21018.44349164303,-0.33516797
21028.44349152196,-0.33512977
21038.44349140089,-0.33508778
21048.44349127982,-0.33501524
21058.44349115875,-0.33499232
21068.44349103767,-0.33491978
21078.4434909166,-0.33486253
21088.44349079553,-0.33480144
21098.44349067446,-0.3347747
21108.44349055339,-0.33476326
21118.44349043231,-0.33470598
21128.44349031124,-0.33465251
21138.44349019017,-0.33462963
21148.4434900691,-0.33457616
21158.44348994803,-0.33456853
21168.44348982695,-0.33452269
21178.44348970588,-0.33448073
21188.44348958481,-0.33440816
21198.44348946374,-0.33442727
21208.44348934267,-0.33435854
21218.44348922159,-0.33428982
21228.44348910052,-0.33429745
21238.44348897945,-0.33420581
21248.44348885838,-0.33417526
21258.44348873731,-0.33417526
21268.44348861623,-0.33407599
21278.44348849516,-0.33403018
21288.44348837409,-0.33398819
21298.44348825302,-0.33394238
21308.44348813195,-0.33393857
21318.44348801087,-0.33385456
21328.4434878898,-0.33382019
21338.44348776873,-0.33377439
21348.44348764766,-0.33372092
21358.44348752659,-0.33368275
21368.44348740552,-0.33357584
21378.44348728444,-0.33358729
21388.44348716337,-0.33346513
21398.4434870423,-0.33347276
21408.44348692123,-0.33343458
21418.44348680016,-0.3334384
21428.44348667908,-0.33336583
21438.44348655801,-0.33328569
21448.44348643694,-0.3332895
21458.44348631587,-0.33320168
21468.4434861948,-0.33316731
21478.44348607372,-0.33313677
21488.44348595265,-0.33308712
21498.44348583158,-0.33302605
21508.44348571051,-0.33302605
21518.44348558944,-0.33297259
21528.44348546836,-0.33291152
21538.44348534729,-0.33291152
21548.44348522622,-0.33282369
21558.44348510515,-0.33283514
21568.44348498408,-0.33277023
21578.443484863,-0.33271298
21588.44348474193,-0.33275878
21598.44348462086,-0.33272442
21608.44348449979,-0.33263662
21618.44348437872,-0.33260989
21628.44348425764,-0.33256024
21638.44348413657,-0.33255261
21648.4434840155,-0.33246863
21658.44348389443,-0.33245715
21668.44348377336,-0.33238843
21678.44348365229,-0.33234262
21688.44348353121,-0.33228153
21698.44348341014,-0.33225098
21708.44348328907,-0.33215553
21718.443483168,-0.33216318
21728.44348304693,-0.33212879
21738.44348292585,-0.332041
21748.44348280478,-0.33198372
21758.44348268371,-0.33192647
21768.44348256264,-0.331873
21778.44348244157,-0.33178902
21788.44348232049,-0.33178139
21798.44348219942,-0.33174321
21808.44348207835,-0.33161336
21818.44348195728,-0.33156374
21828.44348183621,-0.33154085
21838.44348171513,-0.33148739
21848.44348159406,-0.33140337
21858.44348147299,-0.33134231
21868.44348135192,-0.3312583
21878.44348123085,-0.33118194
21888.44348110977,-0.33117431
21898.4434809887,-0.33107123
21908.44348086763,-0.33104834
21918.44348074656,-0.33091849
21928.44348062549,-0.33088794
21938.44348050441,-0.33084214
21948.44348038334,-0.33077723
21958.44348026227,-0.33079249
21968.4434801412,-0.3306818
21978.44348002013,-0.33065125
21988.44347989906,-0.33062068
21998.44347977798,-0.33049086
22008.44347965691,-0.33044508
22018.44347953584,-0.33042982
22028.44347941477,-0.3303878
22038.4434792937,-0.33031908
22048.44347917262,-0.33030763
22058.44347905155,-0.33023891
22068.44347893048,-0.33018163
22078.44347880941,-0.3301129
22088.44347868834,-0.33005562
22098.44347856726,-0.33006328
22108.44347844619,-0.33000597
22118.44347832512,-0.32989529
22128.44347820405,-0.32988381
22138.44347808298,-0.32987237
22148.4434779619,-0.32980365
22158.44347784083,-0.32976547
22168.44347771976,-0.329712
22178.44347759869,-0.32968527
22188.44347747762,-0.32961273
22198.44347735654,-0.3295593
22208.44347723547,-0.32944858
22218.4434771144,-0.3294982
22228.44347699333,-0.3294104
22238.44347687226,-0.32936075
22248.44347675118,-0.32929203
22258.44347663011,-0.32928059
22268.44347650904,-0.3292042
22278.44347638797,-0.32912785
22288.4434762669,-0.32908204
22298.44347614583,-0.32900184
22308.44347602475,-0.32905149
22318.44347590368,-0.32893696
22328.44347578261,-0.32883769
22338.44347566154,-0.32882622
22348.44347554047,-0.32878041
22358.44347541939,-0.32871169
22368.44347529832,-0.32868117
22378.44347517725,-0.32865059
22388.44347505618,-0.32861626
22398.44347493511,-0.3285628
22408.44347481403,-0.3285208
22418.44347469296,-0.32849789
22428.44347457189,-0.32847115
22438.44347445082,-0.32837191
22448.44347432975,-0.3283948
22458.44347420867,-0.32831845
22468.4434740876,-0.32831082
22478.44347396653,-0.32827264
22488.44347384546,-0.32818097
22498.44347372439,-0.32816574
22508.44347360331,-0.32812753
22518.44347348224,-0.32805499
22528.44347336117,-0.32806262
22538.4434732401,-0.32789084
22548.44347311903,-0.32788318
22558.44347299795,-0.32783356
22568.44347287688,-0.32779539
22578.44347275581,-0.32772282
22588.44347263474,-0.32766938
22598.44347251367,-0.3276121
22608.4434723926,-0.327593
22618.44347227152,-0.32753575
22628.44347215045,-0.32748228
22638.44347202938,-0.32740974
22648.44347190831,-0.32731432
22658.44347178724,-0.32721886
22668.44347166616,-0.32725319
22678.44347154509,-0.32715777
22688.44347142402,-0.32710049
22698.44347130295,-0.32704705
22708.44347118188,-0.32700121
22718.4434710608,-0.32691342
22728.44347093973,-0.32687142
22738.44347081866,-0.32689813
22748.44347069759,-0.3268294
22758.44347057652,-0.32674539
22768.44347045544,-0.3266767
22778.44347033437,-0.32666522
22788.4434702133,-0.32661942
22798.44347009223,-0.32656598
22808.44346997116,-0.32653543
22818.44346985008,-0.32645524
22828.44346972901,-0.32636362
22838.44346960794,-0.32637888
22848.44346948687,-0.32637507
22858.4434693658,-0.32628343
22868.44346924472,-0.326188
22878.44346912365,-0.32622236
22888.44346900258,-0.32612309
22898.44346888151,-0.32611164
22908.44346876044,-0.32596654
22918.44346863937,-0.32596269
22928.44346851829,-0.325894
22938.44346839722,-0.32581002
22948.44346827615,-0.32575274
22958.44346815508,-0.3256802
22968.44346803401,-0.32563439
22978.44346791293,-0.32555801
22988.44346779186,-0.32554272
22998.44346767079,-0.32544345
23008.44346754972,-0.32531747
23018.44346742865,-0.32531366
23028.44346730757,-0.32522583
23038.4434671865,-0.32514569
23048.44346706543,-0.3250922
23058.44346694436,-0.3250311
23068.44346682329,-0.32496622
23078.44346670221,-0.32488224
23088.44346658114,-0.32477912
23098.44346646007,-0.3247104
23108.443466339,-0.32467985
23118.44346621793,-0.32458442
23128.44346609685,-0.32451952
23138.44346597578,-0.32448515
23148.44346585471,-0.32446226
23158.44346573364,-0.32435915
23168.44346561257,-0.32429805
23178.44346549149,-0.32425225
23188.44346537042,-0.32421789
23198.44346524935,-0.32413769
23208.44346512828,-0.32405752
23218.44346500721,-0.32404608
23228.44346488614,-0.32395446
23238.44346476506,-0.32389718
23248.44346464399,-0.32390478
23258.44346452292,-0.32380173
23268.44346440185,-0.32375589
23278.44346428078,-0.32375973
23288.4434641597,-0.32367572
23298.44346403863,-0.32363373
23308.44346391756,-0.32357645
23318.44346379649,-0.32358411
23328.44346367542,-0.32350773
23338.44346355434,-0.32347336
23348.44346343327,-0.32341227
23358.4434633122,-0.32340083
23368.44346319113,-0.32335117
23378.44346307006,-0.32325956
23388.44346294898,-0.32321754
23398.44346282791,-0.32320613
23408.44346270684,-0.32312593
23418.44346258577,-0.32307246
23428.4434624647,-0.32303813
23438.44346234362,-0.32297322
23448.44346222255,-0.32291213
23458.44346210148,-0.32286632
23468.44346198041,-0.32283574
23478.44346185934,-0.32274032
23488.44346173826,-0.32272884
23498.44346161719,-0.32265633
23508.44346149612,-0.32258376
23518.44346137505,-0.32255325
23528.44346125398,-0.32249978
23538.44346113291,-0.32247308
23548.44346101183,-0.32241195
23558.44346089076,-0.3223547
23568.44346076969,-0.32234707
23578.44346064862,-0.32226306
23588.44346052755,-0.32222107
23598.44346040647,-0.32216761
23608.4434602854,-0.32209888
23618.44346016433,-0.3220607
23628.44346004326,-0.32195765
23638.44345992219,-0.32194236
23648.44345980111,-0.3218469
23658.44345968004,-0.32180873
23668.44345955897,-0.32173616
23678.4434594379,-0.32166743
23688.44345931683,-0.32161018
23698.44345919575,-0.32157964
23708.44345907468,-0.32151473
23718.44345895361,-0.3214651
23728.44345883254,-0.32141164
23738.44345871147,-0.32134295
23748.44345859039,-0.32125512
23758.44345846932,-0.32121691
23768.44345834825,-0.32115966
23778.44345822718,-0.32108712
23788.44345810611,-0.32107183
23798.44345798503,-0.32090384
23808.44345786396,-0.32081223
23818.44345774289,-0.32075113
23828.44345762182,-0.32070914
23838.44345750075,-0.32062516
23848.44345737968,-0.32054114
23858.4434572586,-0.32043043
23868.44345713753,-0.3204304
23878.44345701646,-0.32039222
23888.44345689539,-0.32031205
23898.44345677432,-0.32030061
23908.44345665324,-0.32019371
23918.44345653217,-0.32014406
23928.4434564111,-0.32008681
23938.44345629003,-0.32000279
23948.44345616896,-0.31998372
23958.44345604788,-0.31985772
23968.44345592681,-0.31981573
23978.44345580574,-0.31978515
23988.44345568467,-0.31969735
23998.4434555636,-0.31965536
24008.44345544252,-0.31959811
24018.44345532145,-0.31953698
24028.44345520038,-0.31944156
24038.44345507931,-0.31933844
24048.44345495824,-0.31929648
24058.44345483716,-0.31922776
24068.44345471609,-0.31909794
24078.44345459502,-0.31913993
24088.44345447395,-0.31897959
24098.44345435288,-0.31893757
24108.4434542318,-0.31883448
24118.44345411073,-0.31873906
24128.44345398966,-0.31865501
24138.44345386859,-0.31863976
24148.44345374752,-0.31854433
24158.44345362645,-0.31842595
24168.44345350537,-0.31834579
24178.4434533843,-0.31824651
24188.44345326323,-0.31817397
24198.44345314216,-0.31808615
24208.44345302109,-0.31796017
24218.44345290001,-0.31790289
24228.44345277894,-0.31785709
24238.44345265787,-0.31770435
24248.4434525368,-0.31768528
24258.44345241573,-0.31760889
24268.44345229465,-0.31749436
24278.44345217358,-0.31737983
24288.44345205251,-0.31738746
24298.44345193144,-0.31726527
24308.44345181037,-0.31721565
24318.44345168929,-0.31715456
24328.44345156822,-0.31705147
24338.44345144715,-0.31701329
24348.44345132608,-0.31688732
24358.44345120501,-0.31687966
24368.44345108393,-0.31681094
24378.44345096286,-0.31668115
24388.44345084179,-0.31664678
24398.44345072072,-0.31656659
24408.44345059965,-0.31648642
24418.44345047858,-0.31649405
24428.4434503575,-0.31645587
24438.44345023643,-0.31635657
24448.44345011536,-0.3163375
24458.44344999429,-0.3162306
24468.44344987322,-0.31612369
24478.44344975214,-0.31605116
24488.44344963107,-0.31596714
24498.44344951,-0.31593663
24508.44344938893,-0.31584498
24518.44344926786,-0.31582588
24528.44344914678,-0.3157419
24538.44344902571,-0.3157075
24548.44344890464,-0.31559679
24558.44344878357,-0.31555864
24568.4434486625,-0.31548226
24578.44344854142,-0.31539828
24588.44344842035,-0.31531426
24598.44344829928,-0.31524554
24608.44344817821,-0.3152723
24618.44344805714,-0.31518829
24628.44344793606,-0.31513101
24638.44344781499,-0.31502795
24648.44344769392,-0.31496301
24658.44344757285,-0.3149325
24668.44344745178,-0.31485993
24678.4434473307,-0.31483704
24688.44344720963,-0.31478357
24698.44344708856,-0.31469578
24708.44344696749,-0.31458884
24718.44344684642,-0.31455833
24728.44344672535,-0.31450486
24738.44344660427,-0.31439033
24748.4434464832,-0.31432542
24758.44344636213,-0.3142567
24768.44344624106,-0.31413451
24778.44344611999,-0.31405815
24788.44344599891,-0.31403905
24798.44344587784,-0.31391308
24808.44344575677,-0.31382906
24818.4434456357,-0.31376034
24828.44344551463,-0.31369543
24838.44344539355,-0.31356946
24848.44344527248,-0.31352746
24858.44344515141,-0.31340525
24868.44344503034,-0.31333655
24878.44344490927,-0.31322962
24888.44344478819,-0.31318766
24898.44344466712,-0.31313419
24908.44344454605,-0.31302345
24918.44344442498,-0.31293184
24928.44344430391,-0.31282875
24938.44344418283,-0.31271803
24948.44344406176,-0.31268749
24958.44344394069,-0.31262642
24968.44344381962,-0.31248131
24978.44344369855,-0.31243548
24988.44344357747,-0.31232095
24998.4434434564,-0.31224841
25008.44344333533,-0.31211096
25018.44344321426,-0.3120575
25028.44344309319,-0.31202316
25038.44344297212,-0.31195059
25048.44344285104,-0.31192389
25058.44344272997,-0.31178641
25068.4434426089,-0.31167188
25078.44344248783,-0.31160316
25088.44344236676,-0.31148866
25098.44344224568,-0.31148481
25108.44344212461,-0.31137028
25118.44344200354,-0.31122521
25128.44344188247,-0.31116793
25138.4434417614,-0.31113356
25148.44344164032,-0.31113356
25158.44344151925,-0.31103811
25168.44344139818,-0.31088158
25178.44344127711,-0.31083956
25188.44344115604,-0.31075558
25198.44344103496,-0.31067541
25208.44344091389,-0.3106105
25218.44344079282,-0.31054178
25228.44344067175,-0.31046543
25238.44344055068,-0.31033561
25248.4434404296,-0.31030124
25258.44344030853,-0.31023633
25268.44344018746,-0.31014851
25278.44344006639,-0.31001487
25288.44343994532,-0.30994233
25298.44343982424,-0.30977434
25308.44343970317,-0.30971327
25318.4434395821,-0.30966362
25328.44343946103,-0.30954528
25338.44343933996,-0.30946508
25348.44343921889,-0.30939636
25358.44343909781,-0.30927038
25368.44343897674,-0.30914438
25378.44343885567,-0.30907184
25388.4434387346,-0.3089993
25398.44343861353,-0.30893058
25408.44343849245,-0.30882749
25418.44343837138,-0.30875114
25428.44343825031,-0.30860984
25438.44343812924,-0.30857167
25448.44343800817,-0.30847242
25458.44343788709,-0.30835024
25468.44343776602,-0.30836931
25478.44343764495,-0.30825096
25488.44343752388,-0.30820897
25498.44343740281,-0.30810207
25508.44343728173,-0.30803335
25518.44343716066,-0.30791879
25528.44343703959,-0.30781189
25538.44343691852,-0.30772024
25548.44343679745,-0.30764771
25558.44343667637,-0.3075141
25568.4434365553,-0.30743772
25578.44343643423,-0.30736518
25588.44343631316,-0.30729264
25598.44343619209,-0.30714756
25608.44343607101,-0.3070941
25618.44343594994,-0.3070063
25628.44343582887,-0.30689937
25638.4434357078,-0.30680776
25648.44343558673,-0.30675048
25658.44343546566,-0.30657485
25668.44343534458,-0.30647939
25678.44343522351,-0.30638394
25688.44343510244,-0.30626178
25698.44343498137,-0.30611286
25708.4434348603,-0.30607468
25718.44343473922,-0.30589142
25728.44343461815,-0.3058036
25738.44343449708,-0.30566615
25748.44343437601,-0.30562034
25758.44343425494,-0.30547908
25768.44343413386,-0.30536073
25778.44343401279,-0.3053149
25788.44343389172,-0.30516219
25798.44343377065,-0.30509347
25808.44343364958,-0.30494455
25818.4434335285,-0.30489874
25828.44343340743,-0.30481857
25838.44343328636,-0.30471548
25848.44343316529,-0.30462766
25858.44343304422,-0.30453604
25868.44343292314,-0.30443674
25878.44343280207,-0.30432221
25888.443432681,-0.30426496
25898.44343255993,-0.30412367
25908.44343243886,-0.30402824
25918.44343231778,-0.30391371
25928.44343219671,-0.30378768
25938.44343207564,-0.3037037
25948.44343195457,-0.30357772
25958.4434318335,-0.30348608
25968.44343171243,-0.30340973
25978.44343159135,-0.30325317
25988.44343147028,-0.30313483
25998.44343134921,-0.30305463
26008.44343122814,-0.30296683
26018.44343110707,-0.30286756
26028.44343098599,-0.30267283
26038.44343086492,-0.30259266
26048.44343074385,-0.30241323
26058.44343062278,-0.30228722
26068.44343050171,-0.30221087
26078.44343038063,-0.30211923
26088.44343025956,-0.30198559
26098.44343013849,-0.30185962
26108.44343001742,-0.30176416
26118.44342989635,-0.30161524
26128.44342977527,-0.30150452
26138.4434296542,-0.30140144
26148.44342953313,-0.30122963
26158.44342941206,-0.30116853
26168.44342929099,-0.30103108
26178.44342916991,-0.30091274
26188.44342904884,-0.30079055
26198.44342892777,-0.30064547
26208.4434288067,-0.30055386
26218.44342868563,-0.30044311
26228.44342856455,-0.30027893
26238.44342844348,-0.30026367
26248.44342832241,-0.30011097
26258.44342820134,-0.30001932
26268.44342808027,-0.29989332
26278.4434279592,-0.29983988
26288.44342783812,-0.29969481
26298.44342771705,-0.29959172
26308.44342759598,-0.29949245
26318.44342747491,-0.2993817
26328.44342735384,-0.29923281
26338.44342723276,-0.29913357
26348.44342711169,-0.29900372
26358.44342699062,-0.29888919
26368.44342686955,-0.29877082
26378.44342674848,-0.29862192
26388.4434266274,-0.2985532
26398.44342650633,-0.29840812
26408.44342638526,-0.29830885
26418.44342626419,-0.29811797
26428.44342614312,-0.29805306
26438.44342602204,-0.29791942
26448.44342590097,-0.2977896
26458.4434257799,-0.29767504
26468.44342565883,-0.29753762
26478.44342553776,-0.2974498
26488.44342541668,-0.29731235
26498.44342529561,-0.29717109
26508.44342517454,-0.29702216
26518.44342505347,-0.29693055
26528.4434249324,-0.29681984
26538.44342481132,-0.29666328
26548.44342469025,-0.29661366
26558.44342456918,-0.29642275
26568.44342444811,-0.29632729
26578.44342432704,-0.29618984
26588.44342420597,-0.29611731
26598.44342408489,-0.29596841
26608.44342396382,-0.29582715
26618.44342384275,-0.29564005
26628.44342372168,-0.29562861
26638.44342360061,-0.29541862
26648.44342347953,-0.29532316
26658.44342335846,-0.29522008
26668.44342323739,-0.29509026
26678.44342311632,-0.29499099
26688.44342299525,-0.29475427
26698.44342287417,-0.2946741
26708.4434227531,-0.29460919
26718.44342263203,-0.29451755
26728.44342251096,-0.2943114
26738.44342238989,-0.29417777
26748.44342226881,-0.29406321
26758.44342214774,-0.29391813
26768.44342202667,-0.29376543
26778.4434219056,-0.29364705
26788.44342178453,-0.29353252
26798.44342166345,-0.29336071
26808.44342154238,-0.29321563
26818.44342142131,-0.29309344
26828.44342130024,-0.29297128
26838.44342117917,-0.29284525
26848.44342105809,-0.29266202
26858.44342093702,-0.29250547
26868.44342081595,-0.29233748
26878.44342069488,-0.29226112
26888.44342057381,-0.29212368
26898.44342045274,-0.29187933
26908.44342033166,-0.29182968
26918.44342021059,-0.29164261
26928.44342008952,-0.29152042
26938.44341996845,-0.29134479
26948.44341984738,-0.29121879
26958.4434197263,-0.29105464
26968.44341960523,-0.29093626
26978.44341948416,-0.29076064
26988.44341936309,-0.29065374
26998.44341924202,-0.29050866
27008.44341912094,-0.29032156
27018.44341899987,-0.2902872
27028.4434188788,-0.2900925
27038.44341875773,-0.28993595
27048.44341863666,-0.28972977
27058.44341851558,-0.28961143
27068.44341839451,-0.28947398
27078.44341827344,-0.28932506
27088.44341815237,-0.28917998
27098.4434180313,-0.28909597
27108.44341791022,-0.28886309
27118.44341778915,-0.28870654
27128.44341766808,-0.28864163
27138.44341754701,-0.28842402
27148.44341742594,-0.28835911
27158.44341730486,-0.28814149
27168.44341718379,-0.28798875
27178.44341706272,-0.2878513
27188.44341694165,-0.28772914
27198.44341682058,-0.28752294
27208.44341669951,-0.28737786
27218.44341657843,-0.28719079
27228.44341645736,-0.28703806
27238.44341633629,-0.2868548
27248.44341621522,-0.28672117
27258.44341609415,-0.2865608
27268.44341597307,-0.28632411
27278.443415852,-0.28618282
27288.44341573093,-0.28601485
27298.44341560986,-0.28587356
27308.44341548879,-0.28569794
27318.44341536771,-0.28556049
27328.44341524664,-0.28539252
27338.44341512557,-0.2852245
27348.4434150045,-0.28504506
27358.44341488343,-0.28494197
27368.44341476235,-0.28468618
27378.44341464128,-0.28454107
27388.44341452021,-0.28436929
27398.44341439914,-0.28419363
27408.44341427807,-0.28404474
27418.44341415699,-0.28384238
27428.44341403592,-0.28375459
27438.44341391485,-0.28352168
27448.44341379378,-0.28331932
27458.44341367271,-0.28317425
27468.44341355163,-0.28299096
27478.44341343056,-0.28283826
27488.44341330949,-0.28270081
27498.44341318842,-0.28239155
27508.44341306735,-0.28228465
27518.44341294628,-0.28213191
27528.4434128252,-0.28184557
27538.44341270413,-0.28170049
27548.44341258306,-0.28147903
27558.44341246199,-0.28137213
27568.44341234092,-0.28116596
27578.44341221984,-0.28097889
27588.44341209877,-0.28078797
27598.4434119777,-0.28055125
27608.44341185663,-0.28036037
27618.44341173556,-0.28017327
27628.44341161448,-0.27997476
27638.44341149341,-0.27977622
27648.44341137234,-0.27959296
27658.44341125127,-0.27939439
27668.4434111302,-0.27918825
27678.44341100912,-0.27898586
27688.44341088805,-0.27878734
27698.44341076698,-0.27861172
27708.44341064591,-0.27837881
27718.44341052484,-0.27825281
27728.44341040376,-0.27797791
27738.44341028269,-0.27781373
27748.44341016162,-0.27755031
27758.44341004055,-0.27739376
27768.44340991948,-0.27722195
27778.4434097984,-0.27704251
27788.44340967733,-0.27680579
27798.44340955626,-0.27658436
27808.44340943519,-0.27634382
27818.44340931412,-0.27610707
27828.44340919305,-0.27596202
27838.44340907197,-0.27569857
27848.4434089509,-0.27548096
27858.44340882983,-0.27526712
27868.44340870876,-0.2750037
27878.44340858769,-0.27480897
27888.44340846661,-0.27460662
27898.44340834554,-0.27425918
27908.44340822447,-0.27404153
27918.4434081034,-0.27381629
27928.44340798233,-0.27361393
27938.44340786125,-0.27329323
27948.44340774018,-0.27298397
27958.44340761911,-0.27277398
27968.44340749804,-0.27249143
27978.44340737697,-0.27221271
27988.44340725589,-0.27195308
27998.44340713482,-0.27167436
28008.44340701375,-0.27146056
28018.44340689268,-0.27122384
28028.44340677161,-0.27094132
28038.44340665053,-0.27068934
28048.44340652946,-0.27042973
28058.44340640839,-0.27012426
28068.44340628732,-0.26985317
28078.44340616625,-0.26959357
28088.44340604517,-0.26925758
28098.4434059241,-0.26901704
28108.44340580303,-0.26871541
28118.44340568196,-0.26845962
28128.44340556089,-0.26824963
28138.44340543982,-0.26794034
28148.44340531874,-0.26765782
28158.44340519767,-0.26734474
28168.4434050766,-0.26705077
28178.44340495553,-0.26677588
28188.44340483446,-0.26651624
28198.44340471338,-0.26618409
28208.44340459231,-0.26594356
28218.44340447124,-0.26561138
28228.44340435017,-0.26526392
28238.4434042291,-0.26498523
28248.44340410802,-0.26467595
28258.44340398695,-0.26446214
28268.44340386588,-0.2640956
28278.44340374481,-0.26376727
28288.44340362374,-0.26348475
28298.44340350266,-0.26311439
28308.44340338159,-0.26277077
28318.44340326052,-0.26245388
28328.44340313945,-0.26220572
28338.44340301838,-0.26180863
28348.4434028973,-0.26141921
28358.44340277623,-0.26099539
28368.44340265516,-0.26070142
28378.44340253409,-0.26031578
28388.44340241302,-0.25993779
28398.44340229194,-0.25953311
28408.44340217087,-0.25918946
28418.4434020498,-0.2588115
28428.44340192873,-0.25850606
28438.44340180766,-0.25812808
28448.44340168659,-0.25776535
28458.44340156551,-0.25729576
28468.44340144444,-0.2568872
28478.44340132337,-0.25646341
28488.4434012023,-0.25616944
28498.44340108123,-0.25576088
28508.44340096015,-0.25541726
28518.44340083908,-0.25495529
28528.44340071801,-0.25457731
28538.44340059694,-0.25416878
28548.44340047587,-0.25377554
28558.44340035479,-0.25337464
28568.44340023372,-0.25296611
28578.44340011265,-0.25261867
28588.44339999158,-0.25214142
28598.44339987051,-0.25177106
28608.44339974943,-0.25136253
28618.44339962836,-0.25093493
28628.44339950729,-0.25054166
28638.44339938622,-0.25014842
28648.44339926515,-0.24965207
28658.44339914407,-0.24914429
28668.443399023,-0.2486403
28678.44339890193,-0.2481325
28688.44339878086,-0.24764761
28698.44339865979,-0.24713981
28708.44339853872,-0.24662821
28718.44339841764,-0.2460555
28728.44339829657,-0.24550952
28738.4433981755,-0.244891
28748.44339805443,-0.24428776
28758.44339793336,-0.24373414
28768.44339781228,-0.2431729
28778.44339769121,-0.24266893
28788.44339757014,-0.24208094
28798.44339744907,-0.24152733
28808.443397328,-0.24095845
28818.44339720692,-0.24032085
28828.44339708585,-0.23975578
28838.44339696478,-0.23914872
28848.44339684371,-0.2385111
28858.44339672264,-0.2378315
28868.44339660156,-0.23720917
28878.44339648049,-0.23659828
28888.44339635942,-0.23587666
28898.44339623835,-0.2353078
28908.44339611728,-0.23460527
28918.4433959962,-0.23398675
28928.44339587513,-0.23341024
28938.44339575406,-0.232723
28948.44339563299,-0.23206629
28958.44339551192,-0.23139432
28968.44339539084,-0.23068035
28978.44339526977,-0.22997783
28988.4433951487,-0.22922188
28998.44339502763,-0.22850028
29008.44339490656,-0.22769466
29018.44339478549,-0.22701125
29028.44339466441,-0.22627819
29038.44339454334,-0.22543822
29048.44339442227,-0.22462881
29058.4433943012,-0.22390337
29068.44339418013,-0.22302523
29078.44339405905,-0.22219673
29088.44339393798,-0.22136822
29098.44339381691,-0.22045571
29108.44339369584,-0.21952793
29118.44339357477,-0.21862689
29128.44339345369,-0.21768765
29138.44339333262,-0.21674842
29148.44339321155,-0.21574047
29158.44339309048,-0.21476687
29168.44339296941,-0.21366347
29178.44339284833,-0.21258296
29188.44339272726,-0.2115712
29198.44339260619,-0.21040669
29208.44339248512,-0.20941783
29218.44339236405,-0.20840225
29228.44339224297,-0.20730266
29238.4433921219,-0.20617634
29248.44339200083,-0.20501947
29258.44339187976,-0.20386262
29268.44339175869,-0.20265231
29278.44339163761,-0.20142291
29288.44339151654,-0.20011714
29298.44339139547,-0.19890684
29308.4433912744,-0.19773853
29318.44339115333,-0.19637167
29328.44339103226,-0.19481392
29338.44339091118,-0.19372961
29348.44339079011,-0.19250402
29358.44339066904,-0.19111809
29368.44339054797,-0.18960616
29378.4433904269,-0.18820113
29388.44339030582,-0.186777
29398.44339018475,-0.18531471
29408.44339006368,-0.1838295
29418.44338994261,-0.18236721
29428.44338982154,-0.18085526
29438.44338970046,-0.17928605
29448.44338957939,-0.17778558
29458.44338945832,-0.17613618
29468.44338933725,-0.17455935
29478.44338921618,-0.17283362
29488.4433890951,-0.17120332
29498.44338897403,-0.16941647
29508.44338885296,-0.16771366
29518.44338873189,-0.16594973
29528.44338861082,-0.1641438
29538.44338848974,-0.1624486
29548.44338836867,-0.16052051
29558.4433882476,-0.15865733
29568.44338812653,-0.15690868
29578.44338800546,-0.15510657
29588.44338788438,-0.15324338
29598.44338776331,-0.15134202
29608.44338764224,-0.14937574
29618.44338752117,-0.14739418
29628.4433874001,-0.14530955
29638.44338727903,-0.14345399
29648.44338715795,-0.14148772
29658.44338703688,-0.13964744
29668.44338691581,-0.13772698
29678.44338679474,-0.13574542
29688.44338667367,-0.13382496
29698.44338655259,-0.13177469
29708.44338643152,-0.12964423
29718.44338631045,-0.12756723
29728.44338618938,-0.1255246
29738.44338606831,-0.12340561
29748.44338594723,-0.12125224
29758.44338582616,-0.11910269
29768.44338570509,-0.11707915
29778.44338558402,-0.11488379
29788.44338546295,-0.11261589
29798.44338534187,-0.11027927
29808.4433852208,-0.10794646
29818.44338509973,-0.10564037
29828.44338497866,-0.1032083
29838.44338485759,-0.10077241
29848.44338473651,-0.098473966
29858.44338461544,-0.096263334
29868.44338449437,-0.09393435
29878.4433843733,-0.091674082
29888.44338425223,-0.089432903
29898.44338413115,-0.087180279
29908.44338401008,-0.084904745
29918.44338388901,-0.082568116
29928.44338376794,-0.080208585
29938.44338364687,-0.077765055
29948.4433835258,-0.075325347
29958.44338340472,-0.072843634
29968.44338328365,-0.070453562
29978.44338316258,-0.068013847
29988.44338304151,-0.065551221
29998.44338292044,-0.063019879
30008.44338279936,-0.06056108
30018.44338267829,-0.057961013
30028.44338255722,-0.055471666
30038.44338243615,-0.052928869
30048.44338231508,-0.050317347
30058.443382194,-0.047835637
30068.44338207293,-0.045273747
30078.44338195186,-0.042860765
30088.44338183079,-0.040237788
30098.44338170972,-0.03761863
30108.44338158864,-0.035052925
30118.44338146757,-0.032422315
30128.4433813465,-0.029871879
30138.44338122543,-0.027405443
30148.44338110436,-0.024809193
30158.44338098328,-0.022243487
30168.44338086221,-0.019624328
30178.44338074114,-0.017066259
30188.44338062007,-0.014378377
30198.443380499,-0.011827943
30208.44338037792,-0.0091667864
30218.44338025685,-0.0065399925
30228.44338013578,-0.0038559283
30238.44338001471,-0.0012176804
30242.91397996059,7.902273e-06
30242.91417996059,-7.9912032e-05
